EMG1;EMG2;EMG3;EMG4;EMG5;EMG6;EMG7;EMG8;SessionID;Timestamp
1;0;0;-2;0;-2;-1;2;687225d9-8424-40aa-9148-93617b152e31;2025-04-25 10:36:21.7632
-2;0;0;0;-3;0;-1;-1;687225d9-8424-40aa-9148-93617b152e31;2025-04-25 10:36:21.7661
-1;-2;-1;1;0;-2;-2;-1;687225d9-8424-40aa-9148-93617b152e31;2025-04-25 10:36:21.7661
-2;1;-2;1;-1;0;0;-1;687225d9-8424-40aa-9148-93617b152e31;2025-04-25 10:36:21.7661
0;-2;-4;-3;-1;0;-2;-3;687225d9-8424-40aa-9148-93617b152e31;2025-04-25 10:36:21.7661
-1;-2;-1;-2;-1;-1;-1;4;687225d9-8424-40aa-9148-93617b152e31;2025-04-25 10:36:21.7661
0;0;-2;-1;-2;-1;-2;1;687225d9-8424-40aa-9148-93617b152e31;2025-04-25 10:36:21.7661
-2;-1;1;1;0;0;-2;0;687225d9-8424-40aa-9148-93617b152e31;2025-04-25 10:36:21.7661
0;1;-1;-2;-1;-2;-1;-2;687225d9-8424-40aa-9148-93617b152e31;2025-04-25 10:36:21.7811
0;-1;-1;-2;-1;-1;0;-1;687225d9-8424-40aa-9148-93617b152e31;2025-04-25 10:36:21.7821
0;-1;0;-1;1;1;2;1;687225d9-8424-40aa-9148-93617b152e31;2025-04-25 10:36:21.7946
-1;-1;-3;0;0;0;-1;-4;687225d9-8424-40aa-9148-93617b152e31;2025-04-25 10:36:21.7946
-5;2;-2;-1;-2;-2;0;-1;687225d9-8424-40aa-9148-93617b152e31;2025-04-25 10:36:21.7976
1;0;-2;-1;1;-1;-1;-2;687225d9-8424-40aa-9148-93617b152e31;2025-04-25 10:36:21.7986
-1;-4;-3;0;-1;-2;-1;0;687225d9-8424-40aa-9148-93617b152e31;2025-04-25 10:36:21.8085
0;-2;-1;-1;-1;-1;0;-1;687225d9-8424-40aa-9148-93617b152e31;2025-04-25 10:36:21.8085
1;-1;1;-1;-1;-1;0;-1;687225d9-8424-40aa-9148-93617b152e31;2025-04-25 10:36:21.8175
-1;-1;-1;-1;-2;-1;-1;-1;687225d9-8424-40aa-9148-93617b152e31;2025-04-25 10:36:21.8175
-1;1;-1;1;-1;-1;-2;-2;687225d9-8424-40aa-9148-93617b152e31;2025-04-25 10:36:21.8315
-1;0;-2;-2;-1;0;-2;-1;687225d9-8424-40aa-9148-93617b152e31;2025-04-25 10:36:21.8315
-1;-1;-1;-3;-1;-2;-1;0;687225d9-8424-40aa-9148-93617b152e31;2025-04-25 10:36:21.8474
-3;0;1;-2;-1;-1;-2;-1;687225d9-8424-40aa-9148-93617b152e31;2025-04-25 10:36:21.8474
1;4;-1;2;-1;-2;-2;-1;687225d9-8424-40aa-9148-93617b152e31;2025-04-25 10:36:21.8604
-2;-3;-1;-1;-1;-1;-2;0;687225d9-8424-40aa-9148-93617b152e31;2025-04-25 10:36:21.8604
0;-1;0;0;0;0;-1;1;687225d9-8424-40aa-9148-93617b152e31;2025-04-25 10:36:21.8694
2;-3;-3;0;-2;-1;1;-1;687225d9-8424-40aa-9148-93617b152e31;2025-04-25 10:36:21.8694
-4;-2;-2;-2;-1;-1;-1;0;687225d9-8424-40aa-9148-93617b152e31;2025-04-25 10:36:21.8774
0;-1;-1;0;0;-2;0;0;687225d9-8424-40aa-9148-93617b152e31;2025-04-25 10:36:21.8784
-1;-1;0;-1;0;0;1;-1;687225d9-8424-40aa-9148-93617b152e31;2025-04-25 10:36:21.8843
-1;0;1;-1;0;-1;-2;-2;687225d9-8424-40aa-9148-93617b152e31;2025-04-25 10:36:21.8843
0;-1;-2;0;-2;0;0;-2;687225d9-8424-40aa-9148-93617b152e31;2025-04-25 10:36:21.9003
2;0;-1;-1;-1;-1;-2;-1;687225d9-8424-40aa-9148-93617b152e31;2025-04-25 10:36:21.9003
1;-4;-1;-1;0;0;-1;0;687225d9-8424-40aa-9148-93617b152e31;2025-04-25 10:36:21.9153
1;-2;-3;-2;0;0;0;0;687225d9-8424-40aa-9148-93617b152e31;2025-04-25 10:36:21.9153
0;-1;0;1;-1;1;2;1;687225d9-8424-40aa-9148-93617b152e31;2025-04-25 10:36:21.9163
-2;-2;-1;0;-1;0;-2;-5;687225d9-8424-40aa-9148-93617b152e31;2025-04-25 10:36:21.9163
1;1;0;-1;-3;-2;-2;-3;687225d9-8424-40aa-9148-93617b152e31;2025-04-25 10:36:21.9222
-2;-2;-2;1;0;0;-1;1;687225d9-8424-40aa-9148-93617b152e31;2025-04-25 10:36:21.9222
1;0;-2;1;-1;-1;0;-1;687225d9-8424-40aa-9148-93617b152e31;2025-04-25 10:36:21.9611
-2;-1;-1;-1;-2;-1;0;-1;687225d9-8424-40aa-9148-93617b152e31;2025-04-25 10:36:21.9611
-2;0;-2;1;-2;0;-2;-4;687225d9-8424-40aa-9148-93617b152e31;2025-04-25 10:36:21.9611
-2;-1;-1;-2;-1;-1;1;4;687225d9-8424-40aa-9148-93617b152e31;2025-04-25 10:36:21.9611
-1;-2;-1;0;1;0;-1;0;687225d9-8424-40aa-9148-93617b152e31;2025-04-25 10:36:21.9621
8;-6;-2;-1;-1;1;-1;1;687225d9-8424-40aa-9148-93617b152e31;2025-04-25 10:36:21.9621
-3;4;0;-2;-1;-2;-3;4;687225d9-8424-40aa-9148-93617b152e31;2025-04-25 10:36:21.9651
1;-8;-1;1;-1;0;-3;-3;687225d9-8424-40aa-9148-93617b152e31;2025-04-25 10:36:21.9651
-14;8;1;0;0;1;0;1;687225d9-8424-40aa-9148-93617b152e31;2025-04-25 10:36:21.9721
2;0;-2;-3;-2;-3;1;1;687225d9-8424-40aa-9148-93617b152e31;2025-04-25 10:36:21.9721
2;-3;-2;0;-1;0;0;-1;687225d9-8424-40aa-9148-93617b152e31;2025-04-25 10:36:21.9801
0;2;-2;0;0;-1;0;-2;687225d9-8424-40aa-9148-93617b152e31;2025-04-25 10:36:21.9801
4;-2;-1;-1;-1;-1;0;0;687225d9-8424-40aa-9148-93617b152e31;2025-04-25 10:36:21.9891
-3;-1;2;0;-1;0;-1;-3;687225d9-8424-40aa-9148-93617b152e31;2025-04-25 10:36:21.9891
-3;0;-1;0;0;-1;1;0;687225d9-8424-40aa-9148-93617b152e31;2025-04-25 10:36:22.0110
-2;-1;-2;-1;0;0;-2;-1;687225d9-8424-40aa-9148-93617b152e31;2025-04-25 10:36:22.0110
1;-4;-1;-3;-2;-2;-1;-1;687225d9-8424-40aa-9148-93617b152e31;2025-04-25 10:36:22.0170
-3;1;-2;-3;0;-1;-1;0;687225d9-8424-40aa-9148-93617b152e31;2025-04-25 10:36:22.0170
1;-2;-1;0;-3;-2;0;0;687225d9-8424-40aa-9148-93617b152e31;2025-04-25 10:36:22.0330
-1;-2;-3;2;1;0;0;-1;687225d9-8424-40aa-9148-93617b152e31;2025-04-25 10:36:22.0330
-1;-1;-1;-1;-2;-1;-1;-2;687225d9-8424-40aa-9148-93617b152e31;2025-04-25 10:36:22.0409
-3;-1;-1;-1;-2;0;-2;-1;687225d9-8424-40aa-9148-93617b152e31;2025-04-25 10:36:22.0419
-2;-2;-1;1;-1;-1;0;1;687225d9-8424-40aa-9148-93617b152e31;2025-04-25 10:36:22.0559
-1;-1;0;1;-1;-1;0;-2;687225d9-8424-40aa-9148-93617b152e31;2025-04-25 10:36:22.0559
-3;0;-2;0;-2;-1;-2;-1;687225d9-8424-40aa-9148-93617b152e31;2025-04-25 10:36:22.0579
-1;-2;0;-1;-2;0;-2;-1;687225d9-8424-40aa-9148-93617b152e31;2025-04-25 10:36:22.0579
-1;-1;-1;-2;0;-1;-1;-2;687225d9-8424-40aa-9148-93617b152e31;2025-04-25 10:36:22.0714
-1;-1;-1;-1;0;1;-2;-2;687225d9-8424-40aa-9148-93617b152e31;2025-04-25 10:36:22.0714
-1;-5;-1;0;-1;-1;1;0;687225d9-8424-40aa-9148-93617b152e31;2025-04-25 10:36:22.0729
-1;2;-1;-3;-1;-1;-1;-1;687225d9-8424-40aa-9148-93617b152e31;2025-04-25 10:36:22.0729
-3;-3;0;-1;-1;-1;-1;-1;687225d9-8424-40aa-9148-93617b152e31;2025-04-25 10:36:22.0938
-1;-2;-1;-1;-2;0;0;1;687225d9-8424-40aa-9148-93617b152e31;2025-04-25 10:36:22.0938
-4;1;-1;-1;-1;-2;-1;0;687225d9-8424-40aa-9148-93617b152e31;2025-04-25 10:36:22.0958
-2;-1;0;1;0;-1;-1;-3;687225d9-8424-40aa-9148-93617b152e31;2025-04-25 10:36:22.0958
-1;-1;-1;1;0;0;-1;-1;687225d9-8424-40aa-9148-93617b152e31;2025-04-25 10:36:22.1078
2;-1;0;-1;-1;-1;-2;0;687225d9-8424-40aa-9148-93617b152e31;2025-04-25 10:36:22.1078
0;-1;-2;-2;-1;0;-1;1;687225d9-8424-40aa-9148-93617b152e31;2025-04-25 10:36:22.1148
-1;-1;0;0;-1;-2;0;1;687225d9-8424-40aa-9148-93617b152e31;2025-04-25 10:36:22.1148
-2;1;-2;-1;2;0;-1;-1;687225d9-8424-40aa-9148-93617b152e31;2025-04-25 10:36:22.1317
1;-2;-1;0;-2;-1;-1;-2;687225d9-8424-40aa-9148-93617b152e31;2025-04-25 10:36:22.1317
1;-3;0;2;-2;1;-1;-2;687225d9-8424-40aa-9148-93617b152e31;2025-04-25 10:36:22.1327
5;-3;-1;-2;0;-1;-1;-1;687225d9-8424-40aa-9148-93617b152e31;2025-04-25 10:36:22.1327
1;-1;-1;-1;-1;0;-1;-3;687225d9-8424-40aa-9148-93617b152e31;2025-04-25 10:36:22.1537
-3;-1;0;-3;-1;-1;0;-2;687225d9-8424-40aa-9148-93617b152e31;2025-04-25 10:36:22.1537
-1;0;1;-4;-1;0;-2;-3;687225d9-8424-40aa-9148-93617b152e31;2025-04-25 10:36:22.1556
0;-3;-1;-1;-1;-1;-1;0;687225d9-8424-40aa-9148-93617b152e31;2025-04-25 10:36:22.1556
1;-1;-1;0;-1;0;1;0;687225d9-8424-40aa-9148-93617b152e31;2025-04-25 10:36:22.1766
-2;0;-1;-2;-2;-1;-1;-2;687225d9-8424-40aa-9148-93617b152e31;2025-04-25 10:36:22.1766
1;-1;-1;-3;-1;1;0;-2;687225d9-8424-40aa-9148-93617b152e31;2025-04-25 10:36:22.1776
-3;1;-2;0;0;0;-1;0;687225d9-8424-40aa-9148-93617b152e31;2025-04-25 10:36:22.1776
-2;-1;1;-1;0;-1;-1;-1;687225d9-8424-40aa-9148-93617b152e31;2025-04-25 10:36:22.1901
-4;-1;-2;-1;-1;-1;-2;-2;687225d9-8424-40aa-9148-93617b152e31;2025-04-25 10:36:22.1901
2;-1;-3;0;-1;-1;0;0;687225d9-8424-40aa-9148-93617b152e31;2025-04-25 10:36:22.2140
-3;1;0;0;-1;-2;-2;-1;687225d9-8424-40aa-9148-93617b152e31;2025-04-25 10:36:22.2140
0;-2;-1;-1;-1;-1;0;0;687225d9-8424-40aa-9148-93617b152e31;2025-04-25 10:36:22.2140
0;0;0;0;-1;-1;-2;-1;687225d9-8424-40aa-9148-93617b152e31;2025-04-25 10:36:22.2140
1;-3;0;0;-1;-1;-1;3;687225d9-8424-40aa-9148-93617b152e31;2025-04-25 10:36:22.2215
-3;0;-2;-1;0;1;-1;-4;687225d9-8424-40aa-9148-93617b152e31;2025-04-25 10:36:22.2215
2;-1;-2;-1;-1;-1;-2;-2;687225d9-8424-40aa-9148-93617b152e31;2025-04-25 10:36:22.2275
-2;-1;1;1;-1;0;1;-1;687225d9-8424-40aa-9148-93617b152e31;2025-04-25 10:36:22.2275
-1;0;-2;-2;0;-1;-1;-3;687225d9-8424-40aa-9148-93617b152e31;2025-04-25 10:36:22.2364
-2;-1;-2;-1;1;-3;0;4;687225d9-8424-40aa-9148-93617b152e31;2025-04-25 10:36:22.2364
-1;-2;-1;-2;-1;-3;-1;1;687225d9-8424-40aa-9148-93617b152e31;2025-04-25 10:36:22.2584
-2;-1;0;-1;0;0;-1;-2;687225d9-8424-40aa-9148-93617b152e31;2025-04-25 10:36:22.2584
-1;1;-1;0;-1;1;-2;-1;687225d9-8424-40aa-9148-93617b152e31;2025-04-25 10:36:22.2604
1;1;-2;-1;-3;-1;-2;-1;687225d9-8424-40aa-9148-93617b152e31;2025-04-25 10:36:22.2604
-2;0;-1;0;-2;-2;0;-1;687225d9-8424-40aa-9148-93617b152e31;2025-04-25 10:36:22.3043
2;-3;0;1;0;-3;-1;0;687225d9-8424-40aa-9148-93617b152e31;2025-04-25 10:36:22.3043
-10;3;1;0;1;-1;-1;-1;687225d9-8424-40aa-9148-93617b152e31;2025-04-25 10:36:22.3053
1;-3;1;1;-1;0;-1;0;687225d9-8424-40aa-9148-93617b152e31;2025-04-25 10:36:22.3063
-1;-3;-2;1;0;0;-1;1;687225d9-8424-40aa-9148-93617b152e31;2025-04-25 10:36:22.3102
-4;1;-1;-1;0;-1;0;-2;687225d9-8424-40aa-9148-93617b152e31;2025-04-25 10:36:22.3102
3;-3;-1;-2;-1;-1;-2;-1;687225d9-8424-40aa-9148-93617b152e31;2025-04-25 10:36:22.3262
-2;2;-2;-3;0;-1;0;1;687225d9-8424-40aa-9148-93617b152e31;2025-04-25 10:36:22.3262
-2;0;-1;-3;-1;-2;-1;-2;687225d9-8424-40aa-9148-93617b152e31;2025-04-25 10:36:22.3272
0;-2;-1;0;-2;-1;-1;0;687225d9-8424-40aa-9148-93617b152e31;2025-04-25 10:36:22.3272
0;-1;-1;-1;0;-3;0;-2;687225d9-8424-40aa-9148-93617b152e31;2025-04-25 10:36:22.3362
-2;0;0;-2;-2;0;-1;-1;687225d9-8424-40aa-9148-93617b152e31;2025-04-25 10:36:22.3362
3;-1;0;0;1;0;0;0;687225d9-8424-40aa-9148-93617b152e31;2025-04-25 10:36:22.3362
0;1;-1;-3;-1;1;-2;1;687225d9-8424-40aa-9148-93617b152e31;2025-04-25 10:36:22.3362
-2;-1;-1;0;0;-1;-2;-5;687225d9-8424-40aa-9148-93617b152e31;2025-04-25 10:36:22.3481
0;-1;-3;-1;-1;0;0;0;687225d9-8424-40aa-9148-93617b152e31;2025-04-25 10:36:22.3481
0;-2;-1;1;-1;1;-2;-1;687225d9-8424-40aa-9148-93617b152e31;2025-04-25 10:36:22.3491
0;0;-2;1;0;-1;0;-1;687225d9-8424-40aa-9148-93617b152e31;2025-04-25 10:36:22.3491
0;-2;0;-2;0;-2;0;0;687225d9-8424-40aa-9148-93617b152e31;2025-04-25 10:36:22.3641
-1;-1;0;-3;-1;-1;-1;-1;687225d9-8424-40aa-9148-93617b152e31;2025-04-25 10:36:22.3641
-4;2;-1;-3;0;-3;0;-2;687225d9-8424-40aa-9148-93617b152e31;2025-04-25 10:36:22.3711
-1;-2;-3;0;-2;-1;0;0;687225d9-8424-40aa-9148-93617b152e31;2025-04-25 10:36:22.3711
-1;-1;0;0;0;-1;0;-1;687225d9-8424-40aa-9148-93617b152e31;2025-04-25 10:36:22.3731
0;-1;0;0;0;-1;0;-4;687225d9-8424-40aa-9148-93617b152e31;2025-04-25 10:36:22.3731
0;-2;0;0;0;1;-1;-1;687225d9-8424-40aa-9148-93617b152e31;2025-04-25 10:36:22.4010
0;1;0;-1;-1;1;-1;0;687225d9-8424-40aa-9148-93617b152e31;2025-04-25 10:36:22.4010
0;0;-1;-3;-2;-3;-2;1;687225d9-8424-40aa-9148-93617b152e31;2025-04-25 10:36:22.4030
-2;0;-1;0;0;0;0;-3;687225d9-8424-40aa-9148-93617b152e31;2025-04-25 10:36:22.4030
-1;0;-2;0;-2;0;-2;-2;687225d9-8424-40aa-9148-93617b152e31;2025-04-25 10:36:22.4080
-2;-1;-1;0;-1;-1;0;-1;687225d9-8424-40aa-9148-93617b152e31;2025-04-25 10:36:22.4080
1;-1;-1;1;-1;0;1;-1;687225d9-8424-40aa-9148-93617b152e31;2025-04-25 10:36:22.4409
-2;-2;-1;1;-1;-2;0;-1;687225d9-8424-40aa-9148-93617b152e31;2025-04-25 10:36:22.4409
0;-2;0;-2;-2;-1;0;-3;687225d9-8424-40aa-9148-93617b152e31;2025-04-25 10:36:22.4419
-1;1;-1;-1;0;0;-1;-1;687225d9-8424-40aa-9148-93617b152e31;2025-04-25 10:36:22.4419
0;0;-2;0;-1;0;-2;-2;687225d9-8424-40aa-9148-93617b152e31;2025-04-25 10:36:22.4549
-1;-1;-1;-1;0;-2;-2;1;687225d9-8424-40aa-9148-93617b152e31;2025-04-25 10:36:22.4549
-1;-1;-1;0;-1;0;-1;-1;687225d9-8424-40aa-9148-93617b152e31;2025-04-25 10:36:22.4559
4;0;-3;0;-1;-2;0;-1;687225d9-8424-40aa-9148-93617b152e31;2025-04-25 10:36:22.4559
-1;-2;-1;-3;-1;-3;0;1;687225d9-8424-40aa-9148-93617b152e31;2025-04-25 10:36:22.4579
-2;-1;0;0;-1;0;1;0;687225d9-8424-40aa-9148-93617b152e31;2025-04-25 10:36:22.4579
-1;1;-1;-2;0;-1;-3;-1;687225d9-8424-40aa-9148-93617b152e31;2025-04-25 10:36:22.4678
1;-1;0;1;0;1;-1;0;687225d9-8424-40aa-9148-93617b152e31;2025-04-25 10:36:22.4678
0;-2;0;1;-2;0;1;-1;687225d9-8424-40aa-9148-93617b152e31;2025-04-25 10:36:22.4758
0;-1;-3;-1;-1;0;-1;-2;687225d9-8424-40aa-9148-93617b152e31;2025-04-25 10:36:22.4768
0;-2;-1;0;-2;-2;-1;-2;687225d9-8424-40aa-9148-93617b152e31;2025-04-25 10:36:22.4908
0;-3;0;0;-1;-1;-1;4;687225d9-8424-40aa-9148-93617b152e31;2025-04-25 10:36:22.4908
0;-1;-2;-1;-2;-1;0;-1;687225d9-8424-40aa-9148-93617b152e31;2025-04-25 10:36:22.5067
-1;-2;0;-2;-1;-1;-1;-2;687225d9-8424-40aa-9148-93617b152e31;2025-04-25 10:36:22.5067
1;-2;0;-1;1;-2;0;-3;687225d9-8424-40aa-9148-93617b152e31;2025-04-25 10:36:22.5147
-3;-1;-1;-1;-1;0;0;-2;687225d9-8424-40aa-9148-93617b152e31;2025-04-25 10:36:22.5147
-1;1;-1;-3;0;-1;-2;0;687225d9-8424-40aa-9148-93617b152e31;2025-04-25 10:36:22.5157
-1;1;-3;-2;-1;0;-1;0;687225d9-8424-40aa-9148-93617b152e31;2025-04-25 10:36:22.5157
-1;-2;-3;-1;-2;-1;-1;-1;687225d9-8424-40aa-9148-93617b152e31;2025-04-25 10:36:22.5277
-1;-3;-1;0;-2;-2;1;-3;687225d9-8424-40aa-9148-93617b152e31;2025-04-25 10:36:22.5277
0;-1;0;1;0;-1;-1;1;687225d9-8424-40aa-9148-93617b152e31;2025-04-25 10:36:22.5426
1;1;-5;0;-1;-1;-2;0;687225d9-8424-40aa-9148-93617b152e31;2025-04-25 10:36:22.5426
-2;-1;7;4;0;1;-2;-1;687225d9-8424-40aa-9148-93617b152e31;2025-04-25 10:36:22.5825
-2;1;2;-3;1;-2;-2;-1;687225d9-8424-40aa-9148-93617b152e31;2025-04-25 10:36:22.5825
1;-1;-8;-5;-4;-1;0;-2;687225d9-8424-40aa-9148-93617b152e31;2025-04-25 10:36:22.5845
-1;0;4;-1;-1;-1;2;-2;687225d9-8424-40aa-9148-93617b152e31;2025-04-25 10:36:22.5845
1;0;-4;1;0;-2;0;1;687225d9-8424-40aa-9148-93617b152e31;2025-04-25 10:36:22.5845
-3;-3;-9;-1;0;0;-1;-2;687225d9-8424-40aa-9148-93617b152e31;2025-04-25 10:36:22.5845
-1;-2;-3;0;-1;-1;0;-1;687225d9-8424-40aa-9148-93617b152e31;2025-04-25 10:36:22.5895
1;6;13;0;0;1;1;0;687225d9-8424-40aa-9148-93617b152e31;2025-04-25 10:36:22.5895
0;3;-7;1;1;1;2;0;687225d9-8424-40aa-9148-93617b152e31;2025-04-25 10:36:22.6035
-1;-7;0;2;2;0;-1;-3;687225d9-8424-40aa-9148-93617b152e31;2025-04-25 10:36:22.6035
0;-3;-6;-5;-3;-1;-2;-1;687225d9-8424-40aa-9148-93617b152e31;2025-04-25 10:36:22.6055
-2;-4;-3;-8;-7;-3;-3;0;687225d9-8424-40aa-9148-93617b152e31;2025-04-25 10:36:22.6055
-1;1;29;-2;-4;-1;-2;-2;687225d9-8424-40aa-9148-93617b152e31;2025-04-25 10:36:22.6104
3;17;-5;5;4;3;1;-1;687225d9-8424-40aa-9148-93617b152e31;2025-04-25 10:36:22.6104
0;-2;-1;0;5;1;1;0;687225d9-8424-40aa-9148-93617b152e31;2025-04-25 10:36:22.6254
0;-4;3;1;1;0;-1;-1;687225d9-8424-40aa-9148-93617b152e31;2025-04-25 10:36:22.6254
-3;-11;-66;-7;-4;-2;-1;-2;687225d9-8424-40aa-9148-93617b152e31;2025-04-25 10:36:22.6414
0;3;26;-4;-7;-4;-2;-1;687225d9-8424-40aa-9148-93617b152e31;2025-04-25 10:36:22.6414
2;15;59;5;-3;-2;-2;0;687225d9-8424-40aa-9148-93617b152e31;2025-04-25 10:36:22.6424
-1;-15;-59;-7;-3;-4;1;0;687225d9-8424-40aa-9148-93617b152e31;2025-04-25 10:36:22.6424
-1;3;33;2;0;1;0;0;687225d9-8424-40aa-9148-93617b152e31;2025-04-25 10:36:22.6473
-3;-24;5;1;2;1;-1;-2;687225d9-8424-40aa-9148-93617b152e31;2025-04-25 10:36:22.6473
-2;18;-6;1;3;-1;0;1;687225d9-8424-40aa-9148-93617b152e31;2025-04-25 10:36:22.6633
1;9;33;4;2;0;-1;0;687225d9-8424-40aa-9148-93617b152e31;2025-04-25 10:36:22.6643
-1;-17;0;0;-1;-1;-1;0;687225d9-8424-40aa-9148-93617b152e31;2025-04-25 10:36:22.6703
0;2;-34;-5;-2;-2;-2;-1;687225d9-8424-40aa-9148-93617b152e31;2025-04-25 10:36:22.6703
0;3;28;1;-3;-1;-2;-2;687225d9-8424-40aa-9148-93617b152e31;2025-04-25 10:36:22.6773
-3;-5;-29;-2;-2;-1;0;-1;687225d9-8424-40aa-9148-93617b152e31;2025-04-25 10:36:22.6773
0;3;-9;-2;-2;-1;-1;1;687225d9-8424-40aa-9148-93617b152e31;2025-04-25 10:36:22.6927
2;12;80;7;-3;-2;-1;0;687225d9-8424-40aa-9148-93617b152e31;2025-04-25 10:36:22.6927
0;11;-43;-5;0;-1;0;-1;687225d9-8424-40aa-9148-93617b152e31;2025-04-25 10:36:22.7167
-8;-29;-60;-6;4;-1;0;-3;687225d9-8424-40aa-9148-93617b152e31;2025-04-25 10:36:22.7167
0;-1;33;2;2;0;-1;1;687225d9-8424-40aa-9148-93617b152e31;2025-04-25 10:36:22.7177
-1;-3;11;-4;-3;-2;-1;-1;687225d9-8424-40aa-9148-93617b152e31;2025-04-25 10:36:22.7177
-1;9;21;2;0;0;0;0;687225d9-8424-40aa-9148-93617b152e31;2025-04-25 10:36:22.7197
4;5;23;4;-1;0;-1;-2;687225d9-8424-40aa-9148-93617b152e31;2025-04-25 10:36:22.7197
1;0;-18;-2;-1;-1;-1;-2;687225d9-8424-40aa-9148-93617b152e31;2025-04-25 10:36:22.7306
-5;-8;-32;-4;-3;-4;-2;-3;687225d9-8424-40aa-9148-93617b152e31;2025-04-25 10:36:22.7306
-3;-6;3;-3;-2;-3;-3;-3;687225d9-8424-40aa-9148-93617b152e31;2025-04-25 10:36:22.7446
0;6;13;-3;-2;-1;0;0;687225d9-8424-40aa-9148-93617b152e31;2025-04-25 10:36:22.7446
-5;-10;4;-9;-6;-4;-2;-4;687225d9-8424-40aa-9148-93617b152e31;2025-04-25 10:36:22.7536
1;0;-14;0;0;2;0;2;687225d9-8424-40aa-9148-93617b152e31;2025-04-25 10:36:22.7536
0;-16;-51;3;8;5;3;0;687225d9-8424-40aa-9148-93617b152e31;2025-04-25 10:36:22.7556
2;19;37;6;0;0;-2;2;687225d9-8424-40aa-9148-93617b152e31;2025-04-25 10:36:22.7556
5;10;35;4;2;-1;1;2;687225d9-8424-40aa-9148-93617b152e31;2025-04-25 10:36:22.7835
-2;-2;10;-7;-6;-3;-1;-3;687225d9-8424-40aa-9148-93617b152e31;2025-04-25 10:36:22.7835
-3;-1;7;-4;-2;-2;-2;-1;687225d9-8424-40aa-9148-93617b152e31;2025-04-25 10:36:22.7855
-3;-5;15;0;-3;0;-1;0;687225d9-8424-40aa-9148-93617b152e31;2025-04-25 10:36:22.7855
0;-2;-33;-2;-1;1;-1;-1;687225d9-8424-40aa-9148-93617b152e31;2025-04-25 10:36:22.7990
2;10;49;4;2;0;0;0;687225d9-8424-40aa-9148-93617b152e31;2025-04-25 10:36:22.7990
-1;-16;-29;-1;0;-1;1;0;687225d9-8424-40aa-9148-93617b152e31;2025-04-25 10:36:22.8000
1;11;-9;1;0;-2;-3;-2;687225d9-8424-40aa-9148-93617b152e31;2025-04-25 10:36:22.8000
-1;0;-7;-5;-3;-1;-3;-2;687225d9-8424-40aa-9148-93617b152e31;2025-04-25 10:36:22.8139
-3;-9;-12;-6;-1;-1;-1;-3;687225d9-8424-40aa-9148-93617b152e31;2025-04-25 10:36:22.8139
0;-2;22;3;-3;0;0;-1;687225d9-8424-40aa-9148-93617b152e31;2025-04-25 10:36:22.8149
-3;-13;-32;-2;0;1;-1;-1;687225d9-8424-40aa-9148-93617b152e31;2025-04-25 10:36:22.8159
-8;-19;-10;-1;0;1;1;-2;687225d9-8424-40aa-9148-93617b152e31;2025-04-25 10:36:22.8428
4;13;19;7;1;0;-1;-1;687225d9-8424-40aa-9148-93617b152e31;2025-04-25 10:36:22.8428
3;6;-4;-5;-4;-2;-1;0;687225d9-8424-40aa-9148-93617b152e31;2025-04-25 10:36:22.8528
0;12;20;-1;-3;-2;-3;-1;687225d9-8424-40aa-9148-93617b152e31;2025-04-25 10:36:22.8528
1;-12;5;-4;0;1;1;0;687225d9-8424-40aa-9148-93617b152e31;2025-04-25 10:36:22.8538
-3;6;-13;1;-1;-2;0;-1;687225d9-8424-40aa-9148-93617b152e31;2025-04-25 10:36:22.8538
-3;-23;48;1;-1;-1;0;-1;687225d9-8424-40aa-9148-93617b152e31;2025-04-25 10:36:22.8568
-5;-22;-96;-8;-5;0;1;0;687225d9-8424-40aa-9148-93617b152e31;2025-04-25 10:36:22.8568
2;12;18;5;2;-1;-1;0;687225d9-8424-40aa-9148-93617b152e31;2025-04-25 10:36:22.8807
1;0;16;3;0;-1;-2;2;687225d9-8424-40aa-9148-93617b152e31;2025-04-25 10:36:22.8817
1;11;51;-1;-3;0;-2;2;687225d9-8424-40aa-9148-93617b152e31;2025-04-25 10:36:22.8827
-1;13;-8;-1;1;0;-3;-5;687225d9-8424-40aa-9148-93617b152e31;2025-04-25 10:36:22.8827
1;4;-43;-2;-3;-2;-1;-2;687225d9-8424-40aa-9148-93617b152e31;2025-04-25 10:36:22.9042
-4;-12;18;-4;-3;-2;-1;-4;687225d9-8424-40aa-9148-93617b152e31;2025-04-25 10:36:22.9042
-3;-18;-36;1;-1;-1;-2;-1;687225d9-8424-40aa-9148-93617b152e31;2025-04-25 10:36:22.9052
-7;-23;3;-8;-4;-1;0;-3;687225d9-8424-40aa-9148-93617b152e31;2025-04-25 10:36:22.9052
3;21;64;7;1;0;0;0;687225d9-8424-40aa-9148-93617b152e31;2025-04-25 10:36:22.9102
-4;-6;-84;-6;0;0;-1;-3;687225d9-8424-40aa-9148-93617b152e31;2025-04-25 10:36:22.9102
3;12;41;1;0;-1;-6;-4;687225d9-8424-40aa-9148-93617b152e31;2025-04-25 10:36:22.9172
6;8;22;7;2;0;2;-2;687225d9-8424-40aa-9148-93617b152e31;2025-04-25 10:36:22.9172
1;13;7;3;4;2;0;3;687225d9-8424-40aa-9148-93617b152e31;2025-04-25 10:36:22.9481
1;0;-21;0;0;-1;6;5;687225d9-8424-40aa-9148-93617b152e31;2025-04-25 10:36:22.9481
-3;-3;-19;-5;-1;-3;-6;3;687225d9-8424-40aa-9148-93617b152e31;2025-04-25 10:36:22.9580
-6;-23;56;1;-2;-1;-3;-5;687225d9-8424-40aa-9148-93617b152e31;2025-04-25 10:36:22.9580
-2;2;-42;-4;-4;-1;-2;-6;687225d9-8424-40aa-9148-93617b152e31;2025-04-25 10:36:22.9590
6;3;-2;0;4;2;-1;0;687225d9-8424-40aa-9148-93617b152e31;2025-04-25 10:36:22.9590
-9;-27;-53;-5;-7;-5;-1;-4;687225d9-8424-40aa-9148-93617b152e31;2025-04-25 10:36:22.9620
2;11;29;-4;0;0;0;-5;687225d9-8424-40aa-9148-93617b152e31;2025-04-25 10:36:22.9620
-2;6;44;3;-1;0;-2;4;687225d9-8424-40aa-9148-93617b152e31;2025-04-25 10:36:22.9850
-1;-9;-5;-3;-1;0;2;1;687225d9-8424-40aa-9148-93617b152e31;2025-04-25 10:36:22.9850
2;11;-5;3;1;-1;1;10;687225d9-8424-40aa-9148-93617b152e31;2025-04-25 10:36:22.9949
4;3;10;5;2;1;0;5;687225d9-8424-40aa-9148-93617b152e31;2025-04-25 10:36:22.9949
-6;11;-6;1;-5;-4;-3;-7;687225d9-8424-40aa-9148-93617b152e31;2025-04-25 10:36:22.9949
-6;-23;-17;-9;-5;-1;-7;-10;687225d9-8424-40aa-9148-93617b152e31;2025-04-25 10:36:22.9949
0;17;22;3;0;0;5;-2;687225d9-8424-40aa-9148-93617b152e31;2025-04-25 10:36:23.0084
1;-17;-103;-4;-1;0;2;1;687225d9-8424-40aa-9148-93617b152e31;2025-04-25 10:36:23.0084
0;8;36;0;1;0;-8;11;687225d9-8424-40aa-9148-93617b152e31;2025-04-25 10:36:23.0164
2;25;-9;1;-2;-1;-4;-16;687225d9-8424-40aa-9148-93617b152e31;2025-04-25 10:36:23.0164
-1;-17;32;0;0;0;-8;-17;687225d9-8424-40aa-9148-93617b152e31;2025-04-25 10:36:23.0174
2;19;28;0;-1;-4;5;12;687225d9-8424-40aa-9148-93617b152e31;2025-04-25 10:36:23.0174
0;-8;-61;-8;-3;0;0;-2;687225d9-8424-40aa-9148-93617b152e31;2025-04-25 10:36:23.0383
-7;-28;38;0;-3;-2;-2;5;687225d9-8424-40aa-9148-93617b152e31;2025-04-25 10:36:23.0383
3;15;-71;0;1;1;2;-3;687225d9-8424-40aa-9148-93617b152e31;2025-04-25 10:36:23.0403
-5;4;83;3;0;-3;-4;-1;687225d9-8424-40aa-9148-93617b152e31;2025-04-25 10:36:23.0403
2;2;-19;-1;1;-1;1;-4;687225d9-8424-40aa-9148-93617b152e31;2025-04-25 10:36:23.0523
2;0;-6;1;0;-2;0;12;687225d9-8424-40aa-9148-93617b152e31;2025-04-25 10:36:23.0523
-1;-4;-36;-4;-3;-1;0;-4;687225d9-8424-40aa-9148-93617b152e31;2025-04-25 10:36:23.0623
2;21;64;3;0;0;-1;1;687225d9-8424-40aa-9148-93617b152e31;2025-04-25 10:36:23.0623
-2;-17;-69;-4;-5;-2;-1;-6;687225d9-8424-40aa-9148-93617b152e31;2025-04-25 10:36:23.0762
-1;8;57;1;-1;-1;-3;-3;687225d9-8424-40aa-9148-93617b152e31;2025-04-25 10:36:23.0762
4;-8;-70;-1;0;-1;3;10;687225d9-8424-40aa-9148-93617b152e31;2025-04-25 10:36:23.0782
6;14;-23;1;5;3;2;2;687225d9-8424-40aa-9148-93617b152e31;2025-04-25 10:36:23.0782
-3;-6;63;0;0;-1;-5;-11;687225d9-8424-40aa-9148-93617b152e31;2025-04-25 10:36:23.0987
-1;7;4;-2;-2;-4;4;10;687225d9-8424-40aa-9148-93617b152e31;2025-04-25 10:36:23.0987
-5;-14;-6;-7;-4;-2;-4;3;687225d9-8424-40aa-9148-93617b152e31;2025-04-25 10:36:23.1007
0;6;-1;3;-1;0;-1;4;687225d9-8424-40aa-9148-93617b152e31;2025-04-25 10:36:23.1007
-4;-22;-11;-7;-2;-3;1;-4;687225d9-8424-40aa-9148-93617b152e31;2025-04-25 10:36:23.1126
-2;-2;-17;-2;0;0;-6;-8;687225d9-8424-40aa-9148-93617b152e31;2025-04-25 10:36:23.1126
5;21;40;1;1;0;6;3;687225d9-8424-40aa-9148-93617b152e31;2025-04-25 10:36:23.1216
-6;-11;-84;-10;-6;-4;1;-3;687225d9-8424-40aa-9148-93617b152e31;2025-04-25 10:36:23.1216
8;3;39;4;-3;-1;-8;21;687225d9-8424-40aa-9148-93617b152e31;2025-04-25 10:36:23.1356
-16;-37;-48;-3;-3;-2;-3;-38;687225d9-8424-40aa-9148-93617b152e31;2025-04-25 10:36:23.1356
1;20;46;0;1;-1;2;0;687225d9-8424-40aa-9148-93617b152e31;2025-04-25 10:36:23.1426
4;-2;23;2;2;-1;-3;-8;687225d9-8424-40aa-9148-93617b152e31;2025-04-25 10:36:23.1426
-8;-21;-91;-8;-5;-3;3;1;687225d9-8424-40aa-9148-93617b152e31;2025-04-25 10:36:23.1575
5;16;15;0;-1;0;-1;12;687225d9-8424-40aa-9148-93617b152e31;2025-04-25 10:36:23.1575
3;5;-1;7;9;4;0;2;687225d9-8424-40aa-9148-93617b152e31;2025-04-25 10:36:23.1665
-12;-21;-39;-7;-6;-1;-3;-29;687225d9-8424-40aa-9148-93617b152e31;2025-04-25 10:36:23.1665
3;-5;17;-2;-5;-3;16;21;687225d9-8424-40aa-9148-93617b152e31;2025-04-25 10:36:23.1954
7;25;49;3;3;1;-2;9;687225d9-8424-40aa-9148-93617b152e31;2025-04-25 10:36:23.1954
-8;-8;-67;-10;-6;-2;1;-3;687225d9-8424-40aa-9148-93617b152e31;2025-04-25 10:36:23.2059
3;-3;49;6;2;2;-7;4;687225d9-8424-40aa-9148-93617b152e31;2025-04-25 10:36:23.2059
2;25;16;4;0;1;0;-13;687225d9-8424-40aa-9148-93617b152e31;2025-04-25 10:36:23.2069
1;6;-21;1;-5;-3;0;5;687225d9-8424-40aa-9148-93617b152e31;2025-04-25 10:36:23.2069
-1;-35;-51;-8;-1;-1;-2;5;687225d9-8424-40aa-9148-93617b152e31;2025-04-25 10:36:23.2099
-8;2;9;-2;-3;-2;-4;-5;687225d9-8424-40aa-9148-93617b152e31;2025-04-25 10:36:23.2099
-2;-32;27;7;6;3;5;2;687225d9-8424-40aa-9148-93617b152e31;2025-04-25 10:36:23.2328
4;4;-10;-3;1;0;-3;-2;687225d9-8424-40aa-9148-93617b152e31;2025-04-25 10:36:23.2328
4;17;71;0;-2;-1;-2;2;687225d9-8424-40aa-9148-93617b152e31;2025-04-25 10:36:23.2433
-6;0;27;-7;-8;-4;-6;-5;687225d9-8424-40aa-9148-93617b152e31;2025-04-25 10:36:23.2433
0;-3;29;1;-1;-2;9;25;687225d9-8424-40aa-9148-93617b152e31;2025-04-25 10:36:23.2443
2;22;-48;-2;3;2;-1;-28;687225d9-8424-40aa-9148-93617b152e31;2025-04-25 10:36:23.2443
0;-17;57;5;0;1;1;1;687225d9-8424-40aa-9148-93617b152e31;2025-04-25 10:36:23.2473
-3;-5;-93;-7;-3;0;0;1;687225d9-8424-40aa-9148-93617b152e31;2025-04-25 10:36:23.2473
-1;10;20;1;1;-1;-10;-14;687225d9-8424-40aa-9148-93617b152e31;2025-04-25 10:36:23.2633
-4;6;53;2;-1;0;2;6;687225d9-8424-40aa-9148-93617b152e31;2025-04-25 10:36:23.2633
8;18;-40;-1;-1;-1;3;25;687225d9-8424-40aa-9148-93617b152e31;2025-04-25 10:36:23.2653
-5;-23;36;-2;-2;-1;3;5;687225d9-8424-40aa-9148-93617b152e31;2025-04-25 10:36:23.2653
0;14;-8;1;1;1;-2;-13;687225d9-8424-40aa-9148-93617b152e31;2025-04-25 10:36:23.2782
1;-8;-11;-3;-2;-2;-6;8;687225d9-8424-40aa-9148-93617b152e31;2025-04-25 10:36:23.2792
-6;-6;56;1;-3;-2;-8;-16;687225d9-8424-40aa-9148-93617b152e31;2025-04-25 10:36:23.2802
8;8;-35;7;7;4;4;12;687225d9-8424-40aa-9148-93617b152e31;2025-04-25 10:36:23.2802
-7;-16;-7;-5;-3;-1;1;-11;687225d9-8424-40aa-9148-93617b152e31;2025-04-25 10:36:23.3092
5;43;42;2;0;-2;-4;-2;687225d9-8424-40aa-9148-93617b152e31;2025-04-25 10:36:23.3092
-7;-60;-62;-7;-4;-4;-9;0;687225d9-8424-40aa-9148-93617b152e31;2025-04-25 10:36:23.3102
4;3;53;3;-2;-4;3;5;687225d9-8424-40aa-9148-93617b152e31;2025-04-25 10:36:23.3102
-6;-20;-29;-4;-2;-1;-5;-21;687225d9-8424-40aa-9148-93617b152e31;2025-04-25 10:36:23.3381
1;4;-27;0;-1;-2;1;9;687225d9-8424-40aa-9148-93617b152e31;2025-04-25 10:36:23.3381
2;20;38;0;-1;1;1;-7;687225d9-8424-40aa-9148-93617b152e31;2025-04-25 10:36:23.3481
2;2;-14;-1;-2;1;-1;0;687225d9-8424-40aa-9148-93617b152e31;2025-04-25 10:36:23.3481
4;-3;4;3;2;0;-3;-1;687225d9-8424-40aa-9148-93617b152e31;2025-04-25 10:36:23.3490
-1;1;34;-2;-3;0;3;2;687225d9-8424-40aa-9148-93617b152e31;2025-04-25 10:36:23.3490
-4;-12;-72;-4;-4;-3;-2;-5;687225d9-8424-40aa-9148-93617b152e31;2025-04-25 10:36:23.3520
4;10;21;3;2;0;0;1;687225d9-8424-40aa-9148-93617b152e31;2025-04-25 10:36:23.3520
-3;3;4;-4;-4;-1;-4;0;687225d9-8424-40aa-9148-93617b152e31;2025-04-25 10:36:23.3680
-6;-17;43;-3;-2;0;0;1;687225d9-8424-40aa-9148-93617b152e31;2025-04-25 10:36:23.3680
2;-2;35;5;0;-3;3;17;687225d9-8424-40aa-9148-93617b152e31;2025-04-25 10:36:23.3780
-4;8;-52;-6;-3;-2;-2;-48;687225d9-8424-40aa-9148-93617b152e31;2025-04-25 10:36:23.3780
1;20;0;-3;-2;-1;2;5;687225d9-8424-40aa-9148-93617b152e31;2025-04-25 10:36:23.3840
0;-11;-13;2;1;0;0;0;687225d9-8424-40aa-9148-93617b152e31;2025-04-25 10:36:23.3840
-2;-7;27;1;3;3;8;-6;687225d9-8424-40aa-9148-93617b152e31;2025-04-25 10:36:23.4124
3;3;38;6;1;-1;-5;32;687225d9-8424-40aa-9148-93617b152e31;2025-04-25 10:36:23.4124
-6;1;-38;-5;-3;-4;-6;-2;687225d9-8424-40aa-9148-93617b152e31;2025-04-25 10:36:23.4378
-4;-5;-33;-8;-3;-2;0;-2;687225d9-8424-40aa-9148-93617b152e31;2025-04-25 10:36:23.4378
0;24;16;2;0;0;4;-16;687225d9-8424-40aa-9148-93617b152e31;2025-04-25 10:36:23.4388
3;-4;11;0;0;-1;-2;3;687225d9-8424-40aa-9148-93617b152e31;2025-04-25 10:36:23.4388
10;26;98;7;4;2;-1;7;687225d9-8424-40aa-9148-93617b152e31;2025-04-25 10:36:23.4398
-8;-42;-102;-15;-7;-4;-4;2;687225d9-8424-40aa-9148-93617b152e31;2025-04-25 10:36:23.4398
-5;4;37;0;-4;-2;-8;0;687225d9-8424-40aa-9148-93617b152e31;2025-04-25 10:36:23.4448
1;13;41;2;2;-1;5;-6;687225d9-8424-40aa-9148-93617b152e31;2025-04-25 10:36:23.4448
0;5;-10;-3;1;2;-2;5;687225d9-8424-40aa-9148-93617b152e31;2025-04-25 10:36:23.4458
-5;-8;-27;-4;-4;-1;-2;-1;687225d9-8424-40aa-9148-93617b152e31;2025-04-25 10:36:23.4458
5;30;3;1;2;0;1;-1;687225d9-8424-40aa-9148-93617b152e31;2025-04-25 10:36:23.4578
-8;-55;-5;-3;0;-2;4;0;687225d9-8424-40aa-9148-93617b152e31;2025-04-25 10:36:23.4578
-9;-7;-17;-2;-5;-3;3;-9;687225d9-8424-40aa-9148-93617b152e31;2025-04-25 10:36:23.4588
3;17;25;-1;-2;-3;-9;9;687225d9-8424-40aa-9148-93617b152e31;2025-04-25 10:36:23.4588
-7;-21;2;-8;-4;-2;-3;-5;687225d9-8424-40aa-9148-93617b152e31;2025-04-25 10:36:23.4807
7;37;11;11;5;2;2;3;687225d9-8424-40aa-9148-93617b152e31;2025-04-25 10:36:23.4817
1;6;53;0;2;0;-1;6;687225d9-8424-40aa-9148-93617b152e31;2025-04-25 10:36:23.4827
-3;-10;-69;-2;0;-2;2;-26;687225d9-8424-40aa-9148-93617b152e31;2025-04-25 10:36:23.4827
-12;-30;-68;-13;-7;-5;-9;-1;687225d9-8424-40aa-9148-93617b152e31;2025-04-25 10:36:23.5106
-1;6;46;-2;-5;1;-2;9;687225d9-8424-40aa-9148-93617b152e31;2025-04-25 10:36:23.5106
-1;12;-22;0;-2;-3;-4;-10;687225d9-8424-40aa-9148-93617b152e31;2025-04-25 10:36:23.5415
0;-4;60;1;-2;2;5;19;687225d9-8424-40aa-9148-93617b152e31;2025-04-25 10:36:23.5415
3;0;-9;5;2;2;1;-12;687225d9-8424-40aa-9148-93617b152e31;2025-04-25 10:36:23.5425
2;12;-31;2;0;-2;-4;7;687225d9-8424-40aa-9148-93617b152e31;2025-04-25 10:36:23.5425
-3;-6;-21;-1;-3;-3;4;11;687225d9-8424-40aa-9148-93617b152e31;2025-04-25 10:36:23.5505
-2;-1;-3;-3;-2;-2;-3;1;687225d9-8424-40aa-9148-93617b152e31;2025-04-25 10:36:23.5505
1;-3;19;0;-2;0;7;-6;687225d9-8424-40aa-9148-93617b152e31;2025-04-25 10:36:23.5525
2;3;22;0;1;0;-8;1;687225d9-8424-40aa-9148-93617b152e31;2025-04-25 10:36:23.5525
1;13;-34;-2;1;-1;0;5;687225d9-8424-40aa-9148-93617b152e31;2025-04-25 10:36:23.5635
-1;-27;-4;-1;1;2;0;-5;687225d9-8424-40aa-9148-93617b152e31;2025-04-25 10:36:23.5635
2;-23;-88;-2;0;-1;-3;1;687225d9-8424-40aa-9148-93617b152e31;2025-04-25 10:36:23.5645
-2;1;86;2;0;0;-1;-4;687225d9-8424-40aa-9148-93617b152e31;2025-04-25 10:36:23.5645
0;23;37;5;0;2;-3;3;687225d9-8424-40aa-9148-93617b152e31;2025-04-25 10:36:23.5784
1;-18;-83;-6;0;0;1;-3;687225d9-8424-40aa-9148-93617b152e31;2025-04-25 10:36:23.5784
-7;-5;90;-4;-5;-2;1;-17;687225d9-8424-40aa-9148-93617b152e31;2025-04-25 10:36:23.5784
2;11;-56;-3;1;1;-3;19;687225d9-8424-40aa-9148-93617b152e31;2025-04-25 10:36:23.5784
0;-37;27;3;0;-2;1;-1;687225d9-8424-40aa-9148-93617b152e31;2025-04-25 10:36:23.6238
-2;17;-62;0;-1;-1;0;-6;687225d9-8424-40aa-9148-93617b152e31;2025-04-25 10:36:23.6238
-3;-12;22;1;-1;1;-2;-4;687225d9-8424-40aa-9148-93617b152e31;2025-04-25 10:36:23.6248
-5;-15;-64;-4;-2;0;-3;-8;687225d9-8424-40aa-9148-93617b152e31;2025-04-25 10:36:23.6248
2;20;17;-1;-1;0;3;9;687225d9-8424-40aa-9148-93617b152e31;2025-04-25 10:36:23.6308
4;-3;12;2;0;1;1;-1;687225d9-8424-40aa-9148-93617b152e31;2025-04-25 10:36:23.6308
0;-7;-5;1;0;0;-2;2;687225d9-8424-40aa-9148-93617b152e31;2025-04-25 10:36:23.6318
-2;9;9;-3;-1;-1;-2;-3;687225d9-8424-40aa-9148-93617b152e31;2025-04-25 10:36:23.6318
4;26;46;6;2;1;1;-1;687225d9-8424-40aa-9148-93617b152e31;2025-04-25 10:36:23.6458
-13;-58;-41;-11;-6;-2;1;-5;687225d9-8424-40aa-9148-93617b152e31;2025-04-25 10:36:23.6468
6;22;26;3;2;-1;-4;2;687225d9-8424-40aa-9148-93617b152e31;2025-04-25 10:36:23.6468
3;3;42;-4;-1;-2;-1;2;687225d9-8424-40aa-9148-93617b152e31;2025-04-25 10:36:23.6468
-6;-23;-68;-3;-1;0;-1;-5;687225d9-8424-40aa-9148-93617b152e31;2025-04-25 10:36:23.6607
4;24;50;-2;-1;-1;-6;1;687225d9-8424-40aa-9148-93617b152e31;2025-04-25 10:36:23.6607
8;24;14;4;1;2;0;0;687225d9-8424-40aa-9148-93617b152e31;2025-04-25 10:36:23.6837
-5;-21;-19;-3;-2;-1;0;1;687225d9-8424-40aa-9148-93617b152e31;2025-04-25 10:36:23.6837
-3;5;9;0;-2;-2;-3;-2;687225d9-8424-40aa-9148-93617b152e31;2025-04-25 10:36:23.7146
0;10;66;1;0;-1;0;-4;687225d9-8424-40aa-9148-93617b152e31;2025-04-25 10:36:23.7146
-2;1;0;1;-2;-3;-3;1;687225d9-8424-40aa-9148-93617b152e31;2025-04-25 10:36:23.7156
0;14;-23;1;1;2;1;4;687225d9-8424-40aa-9148-93617b152e31;2025-04-25 10:36:23.7156
2;-4;-14;-8;-2;-1;-2;-2;687225d9-8424-40aa-9148-93617b152e31;2025-04-25 10:36:23.7176
-3;7;87;6;0;-2;-4;-1;687225d9-8424-40aa-9148-93617b152e31;2025-04-25 10:36:23.7176
-1;-6;-86;-7;-3;-1;4;-3;687225d9-8424-40aa-9148-93617b152e31;2025-04-25 10:36:23.7291
2;-3;-27;0;-1;-1;-1;-13;687225d9-8424-40aa-9148-93617b152e31;2025-04-25 10:36:23.7291
-4;6;4;1;1;-1;-2;18;687225d9-8424-40aa-9148-93617b152e31;2025-04-25 10:36:23.7371
2;7;33;2;-1;0;0;-3;687225d9-8424-40aa-9148-93617b152e31;2025-04-25 10:36:23.7371
2;-1;-44;-6;2;0;-2;4;687225d9-8424-40aa-9148-93617b152e31;2025-04-25 10:36:23.7380
-7;-24;-12;-6;-4;-5;-4;-4;687225d9-8424-40aa-9148-93617b152e31;2025-04-25 10:36:23.7380
-5;-11;-17;-2;-3;-2;-3;-11;687225d9-8424-40aa-9148-93617b152e31;2025-04-25 10:36:23.7390
4;23;2;3;1;0;2;4;687225d9-8424-40aa-9148-93617b152e31;2025-04-25 10:36:23.7390
-5;-15;44;-1;-1;1;3;1;687225d9-8424-40aa-9148-93617b152e31;2025-04-25 10:36:23.7879
-1;-3;-11;4;2;1;-1;2;687225d9-8424-40aa-9148-93617b152e31;2025-04-25 10:36:23.7879
-2;9;9;-3;-2;-1;-2;-4;687225d9-8424-40aa-9148-93617b152e31;2025-04-25 10:36:23.7979
-2;-8;32;2;-1;-1;1;6;687225d9-8424-40aa-9148-93617b152e31;2025-04-25 10:36:23.7989
-3;-21;-14;-6;-4;-1;-3;-9;687225d9-8424-40aa-9148-93617b152e31;2025-04-25 10:36:23.7989
1;5;14;0;-1;0;0;3;687225d9-8424-40aa-9148-93617b152e31;2025-04-25 10:36:23.7989
2;-2;-42;2;1;-1;-2;-1;687225d9-8424-40aa-9148-93617b152e31;2025-04-25 10:36:23.8039
-6;-1;-74;-6;-4;-3;0;-7;687225d9-8424-40aa-9148-93617b152e31;2025-04-25 10:36:23.8039
8;25;7;5;3;0;0;0;687225d9-8424-40aa-9148-93617b152e31;2025-04-25 10:36:23.8039
-1;-4;36;-1;1;0;1;-5;687225d9-8424-40aa-9148-93617b152e31;2025-04-25 10:36:23.8039
-9;-23;-7;-8;-5;-4;-2;-5;687225d9-8424-40aa-9148-93617b152e31;2025-04-25 10:36:23.8188
6;11;36;4;2;1;1;-2;687225d9-8424-40aa-9148-93617b152e31;2025-04-25 10:36:23.8188
-6;-12;14;1;0;-1;-3;6;687225d9-8424-40aa-9148-93617b152e31;2025-04-25 10:36:23.8328
4;11;-70;-2;2;3;1;-3;687225d9-8424-40aa-9148-93617b152e31;2025-04-25 10:36:23.8328
0;6;68;4;1;-2;-2;-1;687225d9-8424-40aa-9148-93617b152e31;2025-04-25 10:36:23.8418
4;15;-47;0;0;-1;-1;-3;687225d9-8424-40aa-9148-93617b152e31;2025-04-25 10:36:23.8418
-8;-20;-24;-6;-4;-3;-1;1;687225d9-8424-40aa-9148-93617b152e31;2025-04-25 10:36:23.8438
6;11;65;3;-2;-1;-2;2;687225d9-8424-40aa-9148-93617b152e31;2025-04-25 10:36:23.8438
-4;-7;0;-1;0;0;-2;0;687225d9-8424-40aa-9148-93617b152e31;2025-04-25 10:36:23.8438
2;14;-11;0;-1;-2;-2;-1;687225d9-8424-40aa-9148-93617b152e31;2025-04-25 10:36:23.8438
5;7;37;2;1;2;2;-4;687225d9-8424-40aa-9148-93617b152e31;2025-04-25 10:36:23.8637
-1;0;0;4;2;-1;-4;-2;687225d9-8424-40aa-9148-93617b152e31;2025-04-25 10:36:23.8637
-7;-15;-43;-10;-4;-3;3;3;687225d9-8424-40aa-9148-93617b152e31;2025-04-25 10:36:23.8647
2;7;33;6;2;2;1;1;687225d9-8424-40aa-9148-93617b152e31;2025-04-25 10:36:23.8647
-1;-3;-17;-6;-3;-3;-3;-7;687225d9-8424-40aa-9148-93617b152e31;2025-04-25 10:36:23.8926
2;-8;15;4;2;1;2;3;687225d9-8424-40aa-9148-93617b152e31;2025-04-25 10:36:23.8926
2;25;-3;0;1;1;0;-4;687225d9-8424-40aa-9148-93617b152e31;2025-04-25 10:36:23.9021
-4;-22;48;2;-1;-1;0;6;687225d9-8424-40aa-9148-93617b152e31;2025-04-25 10:36:23.9021
0;-5;-18;-1;-1;-1;-1;0;687225d9-8424-40aa-9148-93617b152e31;2025-04-25 10:36:23.9031
1;21;13;-1;-2;-2;0;2;687225d9-8424-40aa-9148-93617b152e31;2025-04-25 10:36:23.9031
2;5;6;5;3;1;-3;-3;687225d9-8424-40aa-9148-93617b152e31;2025-04-25 10:36:23.9041
-6;-13;-39;-6;-3;-2;-1;-6;687225d9-8424-40aa-9148-93617b152e31;2025-04-25 10:36:23.9041
4;-3;33;5;2;1;1;2;687225d9-8424-40aa-9148-93617b152e31;2025-04-25 10:36:23.9231
-7;-28;-57;-6;-3;-1;-1;-3;687225d9-8424-40aa-9148-93617b152e31;2025-04-25 10:36:23.9231
1;18;18;1;-3;0;0;-1;687225d9-8424-40aa-9148-93617b152e31;2025-04-25 10:36:23.9610
-2;-10;-30;-7;-2;-2;-3;12;687225d9-8424-40aa-9148-93617b152e31;2025-04-25 10:36:23.9610
3;24;6;0;0;3;-2;-3;687225d9-8424-40aa-9148-93617b152e31;2025-04-25 10:36:23.9709
-3;-17;31;-1;-1;-3;-1;-3;687225d9-8424-40aa-9148-93617b152e31;2025-04-25 10:36:23.9709
-3;-13;-16;2;0;-2;-3;-2;687225d9-8424-40aa-9148-93617b152e31;2025-04-25 10:36:23.9719
4;7;-18;2;-1;-2;2;0;687225d9-8424-40aa-9148-93617b152e31;2025-04-25 10:36:23.9719
0;-3;29;-2;-3;-4;-1;-5;687225d9-8424-40aa-9148-93617b152e31;2025-04-25 10:36:23.9919
-3;-8;-16;-4;-2;-1;-1;4;687225d9-8424-40aa-9148-93617b152e31;2025-04-25 10:36:23.9919
-5;-43;-73;-6;0;-1;1;4;687225d9-8424-40aa-9148-93617b152e31;2025-04-25 10:36:23.9939
-2;-9;24;0;-1;0;0;-2;687225d9-8424-40aa-9148-93617b152e31;2025-04-25 10:36:23.9939
-2;3;-10;-4;-2;0;-2;0;687225d9-8424-40aa-9148-93617b152e31;2025-04-25 10:36:23.9949
0;9;-3;3;-1;-2;-1;-4;687225d9-8424-40aa-9148-93617b152e31;2025-04-25 10:36:23.9949
0;4;26;1;0;0;0;2;687225d9-8424-40aa-9148-93617b152e31;2025-04-25 10:36:24.0133
-8;-23;-13;-6;-4;-3;-3;-3;687225d9-8424-40aa-9148-93617b152e31;2025-04-25 10:36:24.0143
5;12;-3;3;0;1;3;1;687225d9-8424-40aa-9148-93617b152e31;2025-04-25 10:36:24.0143
-5;-2;-8;-7;-4;-2;-8;-2;687225d9-8424-40aa-9148-93617b152e31;2025-04-25 10:36:24.0143
0;-3;12;1;-3;-3;2;-4;687225d9-8424-40aa-9148-93617b152e31;2025-04-25 10:36:24.0273
5;15;-6;1;-1;-2;-1;2;687225d9-8424-40aa-9148-93617b152e31;2025-04-25 10:36:24.0283
-1;2;37;3;1;-1;-1;-4;687225d9-8424-40aa-9148-93617b152e31;2025-04-25 10:36:24.0363
-4;-5;0;-1;1;2;2;-3;687225d9-8424-40aa-9148-93617b152e31;2025-04-25 10:36:24.0363
1;0;-17;1;-2;-1;-3;-1;687225d9-8424-40aa-9148-93617b152e31;2025-04-25 10:36:24.0373
-1;-1;-46;-6;-3;3;0;1;687225d9-8424-40aa-9148-93617b152e31;2025-04-25 10:36:24.0383
-5;-7;20;-3;-2;-4;-1;0;687225d9-8424-40aa-9148-93617b152e31;2025-04-25 10:36:24.0732
1;3;58;5;1;1;-1;-3;687225d9-8424-40aa-9148-93617b152e31;2025-04-25 10:36:24.0732
-2;-1;-48;-7;-1;-2;-1;-7;687225d9-8424-40aa-9148-93617b152e31;2025-04-25 10:36:24.0831
6;15;24;4;1;-1;1;4;687225d9-8424-40aa-9148-93617b152e31;2025-04-25 10:36:24.0831
-3;7;-52;0;-1;1;-1;-2;687225d9-8424-40aa-9148-93617b152e31;2025-04-25 10:36:24.0841
-5;-24;-2;-2;-1;-2;1;0;687225d9-8424-40aa-9148-93617b152e31;2025-04-25 10:36:24.0841
-2;-1;23;0;-2;-3;0;-2;687225d9-8424-40aa-9148-93617b152e31;2025-04-25 10:36:24.0961
6;26;21;3;2;0;2;-1;687225d9-8424-40aa-9148-93617b152e31;2025-04-25 10:36:24.0961
0;-11;-37;-10;0;-3;-2;2;687225d9-8424-40aa-9148-93617b152e31;2025-04-25 10:36:24.0971
-1;3;26;1;0;-1;-1;0;687225d9-8424-40aa-9148-93617b152e31;2025-04-25 10:36:24.0971
0;5;-15;1;0;2;1;-5;687225d9-8424-40aa-9148-93617b152e31;2025-04-25 10:36:24.1126
-4;-3;27;-1;-3;-3;-1;1;687225d9-8424-40aa-9148-93617b152e31;2025-04-25 10:36:24.1126
-1;-17;-46;-1;0;-1;-1;-1;687225d9-8424-40aa-9148-93617b152e31;2025-04-25 10:36:24.1195
1;15;56;1;-4;0;-2;-2;687225d9-8424-40aa-9148-93617b152e31;2025-04-25 10:36:24.1195
-1;17;3;1;2;-1;4;1;687225d9-8424-40aa-9148-93617b152e31;2025-04-25 10:36:24.1205
-3;-60;-6;-1;-1;0;1;-2;687225d9-8424-40aa-9148-93617b152e31;2025-04-25 10:36:24.1205
2;12;71;3;0;-1;0;0;687225d9-8424-40aa-9148-93617b152e31;2025-04-25 10:36:24.1215
-4;-22;-43;-1;-1;-2;-2;-8;687225d9-8424-40aa-9148-93617b152e31;2025-04-25 10:36:24.1215
3;0;-19;-3;-3;1;-2;-6;687225d9-8424-40aa-9148-93617b152e31;2025-04-25 10:36:24.1405
0;21;23;-2;1;-2;1;15;687225d9-8424-40aa-9148-93617b152e31;2025-04-25 10:36:24.1405
2;-2;-26;0;-1;1;-1;3;687225d9-8424-40aa-9148-93617b152e31;2025-04-25 10:36:24.1415
-2;-15;5;-2;0;0;0;0;687225d9-8424-40aa-9148-93617b152e31;2025-04-25 10:36:24.1415
-1;7;52;2;-3;-3;-3;-5;687225d9-8424-40aa-9148-93617b152e31;2025-04-25 10:36:24.1714
-1;-2;-41;1;1;0;0;-6;687225d9-8424-40aa-9148-93617b152e31;2025-04-25 10:36:24.1714
2;-2;-9;-2;-2;-3;-1;-2;687225d9-8424-40aa-9148-93617b152e31;2025-04-25 10:36:24.1804
5;20;26;-1;0;-2;0;2;687225d9-8424-40aa-9148-93617b152e31;2025-04-25 10:36:24.1804
-7;-17;24;2;1;1;-3;-2;687225d9-8424-40aa-9148-93617b152e31;2025-04-25 10:36:24.1814
0;2;-66;-5;-1;0;-1;-2;687225d9-8424-40aa-9148-93617b152e31;2025-04-25 10:36:24.1814
-2;-2;4;1;-2;0;0;-2;687225d9-8424-40aa-9148-93617b152e31;2025-04-25 10:36:24.1824
-1;-19;-12;-1;-2;-1;0;2;687225d9-8424-40aa-9148-93617b152e31;2025-04-25 10:36:24.1824
-1;23;24;-1;-1;-1;-3;3;687225d9-8424-40aa-9148-93617b152e31;2025-04-25 10:36:24.2003
-4;-18;-32;1;1;-1;0;-1;687225d9-8424-40aa-9148-93617b152e31;2025-04-25 10:36:24.2003
2;15;21;3;1;1;-2;-2;687225d9-8424-40aa-9148-93617b152e31;2025-04-25 10:36:24.2078
1;10;30;0;0;-2;3;2;687225d9-8424-40aa-9148-93617b152e31;2025-04-25 10:36:24.2078
-3;-33;-80;-6;0;-3;-4;-2;687225d9-8424-40aa-9148-93617b152e31;2025-04-25 10:36:24.2377
-2;22;8;-1;-3;-3;2;-1;687225d9-8424-40aa-9148-93617b152e31;2025-04-25 10:36:24.2377
1;-4;36;3;0;0;-1;2;687225d9-8424-40aa-9148-93617b152e31;2025-04-25 10:36:24.2467
-5;-13;-18;-2;-2;0;0;-2;687225d9-8424-40aa-9148-93617b152e31;2025-04-25 10:36:24.2467
0;8;71;4;2;-1;3;-3;687225d9-8424-40aa-9148-93617b152e31;2025-04-25 10:36:24.2477
-1;13;-20;-4;-1;-1;-6;-2;687225d9-8424-40aa-9148-93617b152e31;2025-04-25 10:36:24.2487
-2;-14;-2;-2;-1;0;0;0;687225d9-8424-40aa-9148-93617b152e31;2025-04-25 10:36:24.2702
3;31;20;3;1;1;1;2;687225d9-8424-40aa-9148-93617b152e31;2025-04-25 10:36:24.2702
-6;-41;-5;-5;-2;-2;0;-2;687225d9-8424-40aa-9148-93617b152e31;2025-04-25 10:36:24.2712
1;-4;45;-1;-1;-1;-1;-10;687225d9-8424-40aa-9148-93617b152e31;2025-04-25 10:36:24.2712
2;10;-1;2;1;-1;2;4;687225d9-8424-40aa-9148-93617b152e31;2025-04-25 10:36:24.2722
2;-13;-36;-3;-3;-1;-4;2;687225d9-8424-40aa-9148-93617b152e31;2025-04-25 10:36:24.2722
0;4;-43;-5;-3;-1;-1;-5;687225d9-8424-40aa-9148-93617b152e31;2025-04-25 10:36:24.2832
0;11;22;0;-1;-2;-3;-2;687225d9-8424-40aa-9148-93617b152e31;2025-04-25 10:36:24.2832
-2;13;60;1;0;-1;6;6;687225d9-8424-40aa-9148-93617b152e31;2025-04-25 10:36:24.2902
-2;-7;-70;-4;-1;-2;-2;0;687225d9-8424-40aa-9148-93617b152e31;2025-04-25 10:36:24.2902
-1;0;-19;-5;-3;0;-3;3;687225d9-8424-40aa-9148-93617b152e31;2025-04-25 10:36:24.3061
-1;0;53;1;-1;0;-3;-2;687225d9-8424-40aa-9148-93617b152e31;2025-04-25 10:36:24.3061
-1;-8;-90;-5;-1;-2;-2;-5;687225d9-8424-40aa-9148-93617b152e31;2025-04-25 10:36:24.3071
-2;1;30;2;3;2;-2;-2;687225d9-8424-40aa-9148-93617b152e31;2025-04-25 10:36:24.3071
2;0;10;2;2;0;6;4;687225d9-8424-40aa-9148-93617b152e31;2025-04-25 10:36:24.3431
-2;6;6;-3;-3;0;-2;-1;687225d9-8424-40aa-9148-93617b152e31;2025-04-25 10:36:24.3431
0;7;6;3;-3;0;-3;0;687225d9-8424-40aa-9148-93617b152e31;2025-04-25 10:36:24.3520
-2;-3;-8;-5;-4;-3;-1;-5;687225d9-8424-40aa-9148-93617b152e31;2025-04-25 10:36:24.3520
-6;-27;-29;-6;-4;-4;-5;2;687225d9-8424-40aa-9148-93617b152e31;2025-04-25 10:36:24.3600
-1;6;1;2;-1;-1;0;-4;687225d9-8424-40aa-9148-93617b152e31;2025-04-25 10:36:24.3600
1;10;38;2;2;1;1;-2;687225d9-8424-40aa-9148-93617b152e31;2025-04-25 10:36:24.3610
5;20;1;3;3;5;1;-7;687225d9-8424-40aa-9148-93617b152e31;2025-04-25 10:36:24.3610
-5;-2;41;5;2;-1;2;13;687225d9-8424-40aa-9148-93617b152e31;2025-04-25 10:36:24.3620
0;11;-26;-3;-3;-3;-4;-2;687225d9-8424-40aa-9148-93617b152e31;2025-04-25 10:36:24.3630
-3;-17;-33;-3;-2;-2;-4;-6;687225d9-8424-40aa-9148-93617b152e31;2025-04-25 10:36:24.3730
-1;-3;66;4;0;0;1;-7;687225d9-8424-40aa-9148-93617b152e31;2025-04-25 10:36:24.3730
0;13;-47;-5;0;2;0;-2;687225d9-8424-40aa-9148-93617b152e31;2025-04-25 10:36:24.3829
-1;2;43;2;0;-3;0;-1;687225d9-8424-40aa-9148-93617b152e31;2025-04-25 10:36:24.3829
-5;-14;-21;-3;-3;0;-3;-2;687225d9-8424-40aa-9148-93617b152e31;2025-04-25 10:36:24.3839
-1;3;46;4;0;-2;-1;-1;687225d9-8424-40aa-9148-93617b152e31;2025-04-25 10:36:24.3839
6;17;34;4;1;-1;-3;0;687225d9-8424-40aa-9148-93617b152e31;2025-04-25 10:36:24.4104
1;-14;-77;-8;-5;-5;0;1;687225d9-8424-40aa-9148-93617b152e31;2025-04-25 10:36:24.4104
-1;6;25;-1;-2;-2;-4;-5;687225d9-8424-40aa-9148-93617b152e31;2025-04-25 10:36:24.4194
-2;-8;-28;-5;3;-1;-1;4;687225d9-8424-40aa-9148-93617b152e31;2025-04-25 10:36:24.4194
2;20;16;6;3;2;-1;-1;687225d9-8424-40aa-9148-93617b152e31;2025-04-25 10:36:24.4213
-2;-44;-7;0;-1;-2;3;-1;687225d9-8424-40aa-9148-93617b152e31;2025-04-25 10:36:24.4213
-1;4;-4;-6;-5;-1;-3;-2;687225d9-8424-40aa-9148-93617b152e31;2025-04-25 10:36:24.4213
-2;-2;27;-3;-2;1;-1;0;687225d9-8424-40aa-9148-93617b152e31;2025-04-25 10:36:24.4213
1;-4;-87;-1;-2;-2;-3;0;687225d9-8424-40aa-9148-93617b152e31;2025-04-25 10:36:24.4563
0;-6;46;-2;-2;-5;-1;-1;687225d9-8424-40aa-9148-93617b152e31;2025-04-25 10:36:24.4563
-4;-21;-29;-3;-1;3;-1;-2;687225d9-8424-40aa-9148-93617b152e31;2025-04-25 10:36:24.4573
-3;5;-14;0;-1;-3;0;7;687225d9-8424-40aa-9148-93617b152e31;2025-04-25 10:36:24.4573
3;17;15;3;0;0;0;-7;687225d9-8424-40aa-9148-93617b152e31;2025-04-25 10:36:24.4633
3;4;-17;-2;0;1;-4;7;687225d9-8424-40aa-9148-93617b152e31;2025-04-25 10:36:24.4643
-2;0;-9;-3;-1;-4;-1;-13;687225d9-8424-40aa-9148-93617b152e31;2025-04-25 10:36:24.4643
-3;-1;-9;2;-1;-2;1;8;687225d9-8424-40aa-9148-93617b152e31;2025-04-25 10:36:24.4643
-3;-11;52;-3;-3;-2;0;-1;687225d9-8424-40aa-9148-93617b152e31;2025-04-25 10:36:24.4782
-4;19;-14;1;0;2;0;0;687225d9-8424-40aa-9148-93617b152e31;2025-04-25 10:36:24.4782
-3;-7;24;2;0;1;-3;1;687225d9-8424-40aa-9148-93617b152e31;2025-04-25 10:36:24.4782
0;7;-29;0;0;1;-2;-3;687225d9-8424-40aa-9148-93617b152e31;2025-04-25 10:36:24.4792
1;0;42;-3;-4;-1;-4;-1;687225d9-8424-40aa-9148-93617b152e31;2025-04-25 10:36:24.5246
-2;-20;4;-4;1;0;-1;-4;687225d9-8424-40aa-9148-93617b152e31;2025-04-25 10:36:24.5256
3;17;-5;1;0;1;1;5;687225d9-8424-40aa-9148-93617b152e31;2025-04-25 10:36:24.5256
-7;-49;-27;-8;-5;-3;0;-4;687225d9-8424-40aa-9148-93617b152e31;2025-04-25 10:36:24.5256
1;2;-12;4;3;1;-1;3;687225d9-8424-40aa-9148-93617b152e31;2025-04-25 10:36:24.5276
-2;10;11;1;4;2;0;-6;687225d9-8424-40aa-9148-93617b152e31;2025-04-25 10:36:24.5276
1;-2;-21;-3;-4;-3;5;5;687225d9-8424-40aa-9148-93617b152e31;2025-04-25 10:36:24.5306
4;20;-3;-2;-5;-3;-1;0;687225d9-8424-40aa-9148-93617b152e31;2025-04-25 10:36:24.5306
-6;-22;2;0;0;-4;-2;-5;687225d9-8424-40aa-9148-93617b152e31;2025-04-25 10:36:24.5475
2;7;-14;3;4;4;0;-2;687225d9-8424-40aa-9148-93617b152e31;2025-04-25 10:36:24.5475
3;25;59;6;6;-3;-1;1;687225d9-8424-40aa-9148-93617b152e31;2025-04-25 10:36:24.5485
-4;-36;-47;-5;-4;1;-5;-4;687225d9-8424-40aa-9148-93617b152e31;2025-04-25 10:36:24.5485
-7;3;-49;-10;-11;-1;-3;-3;687225d9-8424-40aa-9148-93617b152e31;2025-04-25 10:36:24.5685
0;-5;33;-2;-9;-7;0;2;687225d9-8424-40aa-9148-93617b152e31;2025-04-25 10:36:24.5685
1;-7;-6;-4;2;2;-1;0;687225d9-8424-40aa-9148-93617b152e31;2025-04-25 10:36:24.5695
4;28;8;12;6;1;0;1;687225d9-8424-40aa-9148-93617b152e31;2025-04-25 10:36:24.5695
-2;-25;-55;-2;8;1;1;-1;687225d9-8424-40aa-9148-93617b152e31;2025-04-25 10:36:24.5835
-2;-12;-7;-5;-5;-3;0;0;687225d9-8424-40aa-9148-93617b152e31;2025-04-25 10:36:24.5835
-2;13;10;-9;-10;-1;-4;-1;687225d9-8424-40aa-9148-93617b152e31;2025-04-25 10:36:24.5844
1;-6;12;0;-4;-1;1;2;687225d9-8424-40aa-9148-93617b152e31;2025-04-25 10:36:24.5844
2;13;13;0;3;0;1;0;687225d9-8424-40aa-9148-93617b152e31;2025-04-25 10:36:24.5974
0;3;-15;2;-1;0;0;1;687225d9-8424-40aa-9148-93617b152e31;2025-04-25 10:36:24.5974
-4;-12;-16;-3;1;-2;1;-3;687225d9-8424-40aa-9148-93617b152e31;2025-04-25 10:36:24.6199
0;19;26;-1;0;-1;-7;-5;687225d9-8424-40aa-9148-93617b152e31;2025-04-25 10:36:24.6209
3;-3;30;3;-3;-2;7;5;687225d9-8424-40aa-9148-93617b152e31;2025-04-25 10:36:24.6378
-1;2;-46;-5;0;-3;1;-1;687225d9-8424-40aa-9148-93617b152e31;2025-04-25 10:36:24.6378
-4;-13;9;-1;-3;-3;-3;-2;687225d9-8424-40aa-9148-93617b152e31;2025-04-25 10:36:24.6388
-2;-6;-9;-1;-5;-2;-1;-5;687225d9-8424-40aa-9148-93617b152e31;2025-04-25 10:36:24.6388
5;27;20;4;2;4;-2;4;687225d9-8424-40aa-9148-93617b152e31;2025-04-25 10:36:24.6508
-6;-40;-15;-3;3;0;-2;-4;687225d9-8424-40aa-9148-93617b152e31;2025-04-25 10:36:24.6518
0;0;-8;-1;1;1;1;3;687225d9-8424-40aa-9148-93617b152e31;2025-04-25 10:36:24.6518
-1;-2;-5;-5;-2;-7;-2;-1;687225d9-8424-40aa-9148-93617b152e31;2025-04-25 10:36:24.6518
-2;1;-35;-8;-9;2;-4;-4;687225d9-8424-40aa-9148-93617b152e31;2025-04-25 10:36:24.6578
4;23;24;9;23;6;1;0;687225d9-8424-40aa-9148-93617b152e31;2025-04-25 10:36:24.6578
-2;-16;-23;9;-11;-1;-1;0;687225d9-8424-40aa-9148-93617b152e31;2025-04-25 10:36:24.6727
-1;0;31;5;6;2;-1;-1;687225d9-8424-40aa-9148-93617b152e31;2025-04-25 10:36:24.6737
-1;0;13;0;2;-5;0;-1;687225d9-8424-40aa-9148-93617b152e31;2025-04-25 10:36:24.6887
0;7;-9;-10;-9;-2;-3;-1;687225d9-8424-40aa-9148-93617b152e31;2025-04-25 10:36:24.6887
-2;-3;1;-3;2;-2;-2;-2;687225d9-8424-40aa-9148-93617b152e31;2025-04-25 10:36:24.6897
0;3;-16;-3;-6;-1;-1;-2;687225d9-8424-40aa-9148-93617b152e31;2025-04-25 10:36:24.6897
-3;-7;2;0;-4;-1;-2;-2;687225d9-8424-40aa-9148-93617b152e31;2025-04-25 10:36:24.7041
1;1;-3;3;1;0;0;-1;687225d9-8424-40aa-9148-93617b152e31;2025-04-25 10:36:24.7041
-2;15;5;-2;1;-1;-1;3;687225d9-8424-40aa-9148-93617b152e31;2025-04-25 10:36:24.7041
-4;-7;3;-2;-3;0;2;0;687225d9-8424-40aa-9148-93617b152e31;2025-04-25 10:36:24.7041
-1;-6;16;-1;3;0;-1;-1;687225d9-8424-40aa-9148-93617b152e31;2025-04-25 10:36:24.7261
0;2;-23;-3;-7;-2;-2;-1;687225d9-8424-40aa-9148-93617b152e31;2025-04-25 10:36:24.7261
1;7;8;3;0;-1;0;-3;687225d9-8424-40aa-9148-93617b152e31;2025-04-25 10:36:24.7271
2;-2;-6;-1;3;1;-1;0;687225d9-8424-40aa-9148-93617b152e31;2025-04-25 10:36:24.7271
-1;-2;-1;4;1;-1;0;1;687225d9-8424-40aa-9148-93617b152e31;2025-04-25 10:36:24.7410
0;2;-11;-2;-4;1;-2;1;687225d9-8424-40aa-9148-93617b152e31;2025-04-25 10:36:24.7410
-1;1;14;-1;-1;1;-1;0;687225d9-8424-40aa-9148-93617b152e31;2025-04-25 10:36:24.7410
4;7;0;1;1;-3;1;0;687225d9-8424-40aa-9148-93617b152e31;2025-04-25 10:36:24.7410
-6;7;4;-5;-3;-3;-4;-3;687225d9-8424-40aa-9148-93617b152e31;2025-04-25 10:36:24.7710
0;-12;-11;2;-3;0;2;2;687225d9-8424-40aa-9148-93617b152e31;2025-04-25 10:36:24.7710
-3;-36;-12;-2;4;-2;0;-1;687225d9-8424-40aa-9148-93617b152e31;2025-04-25 10:36:24.7720
-2;19;-9;-3;-1;-1;1;-2;687225d9-8424-40aa-9148-93617b152e31;2025-04-25 10:36:24.7720
2;5;19;-1;-6;-3;-4;-2;687225d9-8424-40aa-9148-93617b152e31;2025-04-25 10:36:24.7869
-1;6;27;1;-4;-2;-3;-3;687225d9-8424-40aa-9148-93617b152e31;2025-04-25 10:36:24.7869
1;16;-17;2;0;1;-3;-1;687225d9-8424-40aa-9148-93617b152e31;2025-04-25 10:36:24.7869
2;-14;22;1;1;-1;0;0;687225d9-8424-40aa-9148-93617b152e31;2025-04-25 10:36:24.7879
-11;-25;-21;-5;-3;-4;0;-5;687225d9-8424-40aa-9148-93617b152e31;2025-04-25 10:36:24.7999
-1;10;16;2;-2;-3;-1;1;687225d9-8424-40aa-9148-93617b152e31;2025-04-25 10:36:24.7999
2;-19;-4;3;3;6;1;-1;687225d9-8424-40aa-9148-93617b152e31;2025-04-25 10:36:24.8074
0;18;11;0;-3;-1;-1;3;687225d9-8424-40aa-9148-93617b152e31;2025-04-25 10:36:24.8084
7;11;32;-2;-1;-2;-1;3;687225d9-8424-40aa-9148-93617b152e31;2025-04-25 10:36:24.8253
-8;-11;-35;-7;-2;2;-1;-2;687225d9-8424-40aa-9148-93617b152e31;2025-04-25 10:36:24.8253
3;-8;9;6;9;1;2;2;687225d9-8424-40aa-9148-93617b152e31;2025-04-25 10:36:24.8263
-6;0;-2;-7;-2;0;-2;-3;687225d9-8424-40aa-9148-93617b152e31;2025-04-25 10:36:24.8263
2;-13;-38;-2;-3;-3;0;3;687225d9-8424-40aa-9148-93617b152e31;2025-04-25 10:36:24.8373
0;11;28;-4;-11;-11;-1;-4;687225d9-8424-40aa-9148-93617b152e31;2025-04-25 10:36:24.8373
3;11;19;-6;-7;1;0;1;687225d9-8424-40aa-9148-93617b152e31;2025-04-25 10:36:24.8622
-11;-26;-57;1;5;2;-2;-5;687225d9-8424-40aa-9148-93617b152e31;2025-04-25 10:36:24.8622
4;7;39;6;14;3;-1;3;687225d9-8424-40aa-9148-93617b152e31;2025-04-25 10:36:24.8632
-1;-4;15;1;-6;1;0;1;687225d9-8424-40aa-9148-93617b152e31;2025-04-25 10:36:24.8632
1;7;-2;-1;0;-3;0;2;687225d9-8424-40aa-9148-93617b152e31;2025-04-25 10:36:24.8642
1;6;10;-1;-1;-3;0;0;687225d9-8424-40aa-9148-93617b152e31;2025-04-25 10:36:24.8642
-6;-29;-74;-7;-6;0;-2;-3;687225d9-8424-40aa-9148-93617b152e31;2025-04-25 10:36:24.8911
-1;16;10;1;4;1;-1;1;687225d9-8424-40aa-9148-93617b152e31;2025-04-25 10:36:24.8911
1;28;13;2;-2;-2;-2;0;687225d9-8424-40aa-9148-93617b152e31;2025-04-25 10:36:24.8921
0;12;10;-4;-5;-2;-2;-1;687225d9-8424-40aa-9148-93617b152e31;2025-04-25 10:36:24.8921
-2;-13;45;4;-1;1;0;-2;687225d9-8424-40aa-9148-93617b152e31;2025-04-25 10:36:24.8971
1;4;-15;0;-2;-2;-2;-1;687225d9-8424-40aa-9148-93617b152e31;2025-04-25 10:36:24.8971
0;-3;-27;-2;-2;0;1;0;687225d9-8424-40aa-9148-93617b152e31;2025-04-25 10:36:24.9056
-3;-10;25;1;5;2;0;-1;687225d9-8424-40aa-9148-93617b152e31;2025-04-25 10:36:24.9056
-1;7;52;1;2;0;0;-2;687225d9-8424-40aa-9148-93617b152e31;2025-04-25 10:36:24.9291
1;-1;-11;-3;0;-2;0;0;687225d9-8424-40aa-9148-93617b152e31;2025-04-25 10:36:24.9291
-1;-8;-12;-5;-2;-4;-2;-1;687225d9-8424-40aa-9148-93617b152e31;2025-04-25 10:36:24.9291
-2;-36;-1;0;0;-1;-1;-2;687225d9-8424-40aa-9148-93617b152e31;2025-04-25 10:36:24.9301
1;10;-6;-1;-3;-1;-1;0;687225d9-8424-40aa-9148-93617b152e31;2025-04-25 10:36:24.9440
-1;13;-9;-2;-4;-1;-2;-1;687225d9-8424-40aa-9148-93617b152e31;2025-04-25 10:36:24.9440
-7;-18;6;-1;-1;-3;-4;-4;687225d9-8424-40aa-9148-93617b152e31;2025-04-25 10:36:24.9440
5;18;24;3;1;1;1;2;687225d9-8424-40aa-9148-93617b152e31;2025-04-25 10:36:24.9450
3;17;-41;1;2;2;1;1;687225d9-8424-40aa-9148-93617b152e31;2025-04-25 10:36:24.9570
0;-18;-2;1;6;1;2;0;687225d9-8424-40aa-9148-93617b152e31;2025-04-25 10:36:24.9570
-1;5;42;0;-2;-3;0;-1;687225d9-8424-40aa-9148-93617b152e31;2025-04-25 10:36:24.9729
-1;4;5;-4;-7;-6;-1;-3;687225d9-8424-40aa-9148-93617b152e31;2025-04-25 10:36:24.9729
0;2;-3;-1;-8;0;-1;-1;687225d9-8424-40aa-9148-93617b152e31;2025-04-25 10:36:24.9809
0;-14;27;-2;1;4;0;1;687225d9-8424-40aa-9148-93617b152e31;2025-04-25 10:36:24.9809
1;6;-5;3;10;4;1;0;687225d9-8424-40aa-9148-93617b152e31;2025-04-25 10:36:24.9809
-5;-7;-48;0;1;-3;0;-2;687225d9-8424-40aa-9148-93617b152e31;2025-04-25 10:36:24.9809
3;13;5;-1;-2;-3;-1;-1;687225d9-8424-40aa-9148-93617b152e31;2025-04-25 10:36:25.0039
2;8;37;-1;-5;-2;1;-1;687225d9-8424-40aa-9148-93617b152e31;2025-04-25 10:36:25.0039
-5;-3;-22;-4;-7;-2;-2;-5;687225d9-8424-40aa-9148-93617b152e31;2025-04-25 10:36:25.0049
-1;-34;-46;-3;-3;0;-2;1;687225d9-8424-40aa-9148-93617b152e31;2025-04-25 10:36:25.0049
-2;8;14;0;2;-2;1;0;687225d9-8424-40aa-9148-93617b152e31;2025-04-25 10:36:25.0178
-4;-13;-59;-5;-3;-2;-3;-1;687225d9-8424-40aa-9148-93617b152e31;2025-04-25 10:36:25.0178
2;16;12;1;-4;-3;0;0;687225d9-8424-40aa-9148-93617b152e31;2025-04-25 10:36:25.0328
2;5;-4;1;3;5;0;-1;687225d9-8424-40aa-9148-93617b152e31;2025-04-25 10:36:25.0328
-3;1;-7;2;3;1;0;-1;687225d9-8424-40aa-9148-93617b152e31;2025-04-25 10:36:25.0408
-1;-4;40;1;1;-3;-2;0;687225d9-8424-40aa-9148-93617b152e31;2025-04-25 10:36:25.0408
-3;-22;-20;-3;-2;-1;0;-1;687225d9-8424-40aa-9148-93617b152e31;2025-04-25 10:36:25.0418
0;6;5;-1;-3;-3;-2;-2;687225d9-8424-40aa-9148-93617b152e31;2025-04-25 10:36:25.0418
-1;-18;-1;-4;-4;-2;-6;12;687225d9-8424-40aa-9148-93617b152e31;2025-04-25 10:36:25.0647
-6;10;-2;-1;-1;-2;10;-29;687225d9-8424-40aa-9148-93617b152e31;2025-04-25 10:36:25.0647
1;-5;-17;-1;-2;-2;-17;-2;687225d9-8424-40aa-9148-93617b152e31;2025-04-25 10:36:25.0657
0;7;24;1;-2;1;0;0;687225d9-8424-40aa-9148-93617b152e31;2025-04-25 10:36:25.0657
2;-1;-26;-2;1;1;0;-9;687225d9-8424-40aa-9148-93617b152e31;2025-04-25 10:36:25.0866
1;-6;-26;-4;0;-1;-1;8;687225d9-8424-40aa-9148-93617b152e31;2025-04-25 10:36:25.0866
-6;-14;-4;-2;-1;-3;3;2;687225d9-8424-40aa-9148-93617b152e31;2025-04-25 10:36:25.0866
-1;10;10;1;0;2;0;-5;687225d9-8424-40aa-9148-93617b152e31;2025-04-25 10:36:25.0876
-2;-10;-9;0;-2;-4;0;4;687225d9-8424-40aa-9148-93617b152e31;2025-04-25 10:36:25.1076
2;1;14;2;0;4;-7;5;687225d9-8424-40aa-9148-93617b152e31;2025-04-25 10:36:25.1076
1;0;3;0;0;2;4;-2;687225d9-8424-40aa-9148-93617b152e31;2025-04-25 10:36:25.1245
2;6;-1;0;-1;-12;1;4;687225d9-8424-40aa-9148-93617b152e31;2025-04-25 10:36:25.1255
0;1;-7;1;1;4;4;-3;687225d9-8424-40aa-9148-93617b152e31;2025-04-25 10:36:25.1265
1;0;6;0;0;-4;-2;-1;687225d9-8424-40aa-9148-93617b152e31;2025-04-25 10:36:25.1265
-5;-1;-6;-1;-2;1;2;1;687225d9-8424-40aa-9148-93617b152e31;2025-04-25 10:36:25.1275
-2;0;-4;-1;-1;2;-2;0;687225d9-8424-40aa-9148-93617b152e31;2025-04-25 10:36:25.1275
0;-5;3;-4;-2;-2;-1;-6;687225d9-8424-40aa-9148-93617b152e31;2025-04-25 10:36:25.1460
0;0;-2;0;0;1;-3;-3;687225d9-8424-40aa-9148-93617b152e31;2025-04-25 10:36:25.1460
-4;-3;-3;-1;-3;-1;-3;0;687225d9-8424-40aa-9148-93617b152e31;2025-04-25 10:36:25.1470
0;-3;-4;0;0;1;4;0;687225d9-8424-40aa-9148-93617b152e31;2025-04-25 10:36:25.1470
0;1;4;-1;-2;-2;-6;-6;687225d9-8424-40aa-9148-93617b152e31;2025-04-25 10:36:25.1759
-1;2;-2;0;2;1;3;7;687225d9-8424-40aa-9148-93617b152e31;2025-04-25 10:36:25.1759
0;1;-4;-2;-1;-2;4;0;687225d9-8424-40aa-9148-93617b152e31;2025-04-25 10:36:25.1769
-2;-2;2;-3;0;0;-9;-14;687225d9-8424-40aa-9148-93617b152e31;2025-04-25 10:36:25.1769
0;-2;-1;0;0;-1;0;4;687225d9-8424-40aa-9148-93617b152e31;2025-04-25 10:36:25.1839
9;0;-3;0;0;-1;-3;-8;687225d9-8424-40aa-9148-93617b152e31;2025-04-25 10:36:25.1839
-3;0;2;0;-1;-1;5;9;687225d9-8424-40aa-9148-93617b152e31;2025-04-25 10:36:25.1849
-2;-1;3;0;-1;1;-1;0;687225d9-8424-40aa-9148-93617b152e31;2025-04-25 10:36:25.1859
-1;-2;-5;-1;0;0;3;5;687225d9-8424-40aa-9148-93617b152e31;2025-04-25 10:36:25.2138
0;-2;-11;-2;-1;-3;-1;10;687225d9-8424-40aa-9148-93617b152e31;2025-04-25 10:36:25.2138
1;-2;8;0;0;0;-1;2;687225d9-8424-40aa-9148-93617b152e31;2025-04-25 10:36:25.2148
-1;1;-2;-1;-1;0;-3;-3;687225d9-8424-40aa-9148-93617b152e31;2025-04-25 10:36:25.2148
-2;-6;0;-3;-2;-3;-3;-8;687225d9-8424-40aa-9148-93617b152e31;2025-04-25 10:36:25.2288
-4;1;0;-1;-1;-1;0;5;687225d9-8424-40aa-9148-93617b152e31;2025-04-25 10:36:25.2288
-1;-3;-5;-2;0;-2;-1;-5;687225d9-8424-40aa-9148-93617b152e31;2025-04-25 10:36:25.2298
0;1;-3;1;0;-3;0;-2;687225d9-8424-40aa-9148-93617b152e31;2025-04-25 10:36:25.2308
0;1;-1;-1;-1;-2;0;2;687225d9-8424-40aa-9148-93617b152e31;2025-04-25 10:36:25.2428
-2;-2;1;0;-2;-1;-3;0;687225d9-8424-40aa-9148-93617b152e31;2025-04-25 10:36:25.2428
1;1;-2;0;-1;-1;-4;-7;687225d9-8424-40aa-9148-93617b152e31;2025-04-25 10:36:25.2517
2;-4;-3;-1;0;-1;1;8;687225d9-8424-40aa-9148-93617b152e31;2025-04-25 10:36:25.2517
-3;1;0;-3;-1;0;0;1;687225d9-8424-40aa-9148-93617b152e31;2025-04-25 10:36:25.2817
-1;2;1;0;-2;1;-1;-10;687225d9-8424-40aa-9148-93617b152e31;2025-04-25 10:36:25.2817
0;-1;0;-1;0;0;-5;-1;687225d9-8424-40aa-9148-93617b152e31;2025-04-25 10:36:25.2836
-1;-2;-2;-3;-1;-1;7;6;687225d9-8424-40aa-9148-93617b152e31;2025-04-25 10:36:25.2836
-3;-1;-1;-2;-1;1;1;-5;687225d9-8424-40aa-9148-93617b152e31;2025-04-25 10:36:25.2846
-6;1;1;-1;-1;-2;-6;-4;687225d9-8424-40aa-9148-93617b152e31;2025-04-25 10:36:25.2846
-1;-2;-5;1;0;0;1;0;687225d9-8424-40aa-9148-93617b152e31;2025-04-25 10:36:25.2886
0;-1;-1;-2;0;0;-2;-1;687225d9-8424-40aa-9148-93617b152e31;2025-04-25 10:36:25.2886
-2;0;-1;0;1;-1;-2;-4;687225d9-8424-40aa-9148-93617b152e31;2025-04-25 10:36:25.3186
1;-1;0;-1;-1;-1;1;3;687225d9-8424-40aa-9148-93617b152e31;2025-04-25 10:36:25.3186
2;-4;-5;-1;-1;-2;-1;-7;687225d9-8424-40aa-9148-93617b152e31;2025-04-25 10:36:25.3205
-1;-1;2;1;-1;-2;-5;7;687225d9-8424-40aa-9148-93617b152e31;2025-04-25 10:36:25.3205
-1;1;1;-3;-1;-1;1;0;687225d9-8424-40aa-9148-93617b152e31;2025-04-25 10:36:25.3475
0;-1;-1;0;0;3;-3;-1;687225d9-8424-40aa-9148-93617b152e31;2025-04-25 10:36:25.3475
1;-1;2;2;-1;-3;-1;-2;687225d9-8424-40aa-9148-93617b152e31;2025-04-25 10:36:25.3585
-2;-1;-10;-1;0;0;0;-4;687225d9-8424-40aa-9148-93617b152e31;2025-04-25 10:36:25.3585
1;3;-1;-1;-2;-1;-2;0;687225d9-8424-40aa-9148-93617b152e31;2025-04-25 10:36:25.3585
0;-5;-1;0;0;-3;1;2;687225d9-8424-40aa-9148-93617b152e31;2025-04-25 10:36:25.3585
-2;0;-1;-4;-1;-1;0;-1;687225d9-8424-40aa-9148-93617b152e31;2025-04-25 10:36:25.3874
-1;-2;4;0;1;1;-1;-4;687225d9-8424-40aa-9148-93617b152e31;2025-04-25 10:36:25.3874
-1;-1;-1;0;-1;-1;-2;2;687225d9-8424-40aa-9148-93617b152e31;2025-04-25 10:36:25.3884
-2;1;0;-2;0;-1;0;1;687225d9-8424-40aa-9148-93617b152e31;2025-04-25 10:36:25.3884
0;1;1;0;-2;-1;0;-1;687225d9-8424-40aa-9148-93617b152e31;2025-04-25 10:36:25.3904
-2;-2;-4;0;-1;-2;-2;-1;687225d9-8424-40aa-9148-93617b152e31;2025-04-25 10:36:25.3904
1;0;-1;-4;0;-1;-2;-5;687225d9-8424-40aa-9148-93617b152e31;2025-04-25 10:36:25.3924
-1;0;-2;-1;-1;-4;-1;-1;687225d9-8424-40aa-9148-93617b152e31;2025-04-25 10:36:25.3924
-2;0;3;5;0;-2;-2;-1;687225d9-8424-40aa-9148-93617b152e31;2025-04-25 10:36:25.4233
5;19;13;8;4;1;1;2;687225d9-8424-40aa-9148-93617b152e31;2025-04-25 10:36:25.4233
-1;-17;-14;-2;1;2;0;2;687225d9-8424-40aa-9148-93617b152e31;2025-04-25 10:36:25.4608
-7;-8;-3;-5;-2;-3;-3;-3;687225d9-8424-40aa-9148-93617b152e31;2025-04-25 10:36:25.4608
-2;-2;-9;-9;-4;-5;-4;-1;687225d9-8424-40aa-9148-93617b152e31;2025-04-25 10:36:25.4677
-2;-3;0;0;0;3;1;1;687225d9-8424-40aa-9148-93617b152e31;2025-04-25 10:36:25.4677
1;6;7;1;-1;-1;1;1;687225d9-8424-40aa-9148-93617b152e31;2025-04-25 10:36:25.4937
2;3;5;2;0;4;0;2;687225d9-8424-40aa-9148-93617b152e31;2025-04-25 10:36:25.4937
-1;-4;-1;0;-3;-4;-1;-1;687225d9-8424-40aa-9148-93617b152e31;2025-04-25 10:36:25.4937
-1;2;0;-4;-5;-5;-1;-3;687225d9-8424-40aa-9148-93617b152e31;2025-04-25 10:36:25.4937
2;1;6;14;4;3;2;2;687225d9-8424-40aa-9148-93617b152e31;2025-04-25 10:36:25.4947
0;-3;-5;-9;-4;-2;-3;-1;687225d9-8424-40aa-9148-93617b152e31;2025-04-25 10:36:25.4947
-4;13;-11;-4;-4;-6;-4;-2;687225d9-8424-40aa-9148-93617b152e31;2025-04-25 10:36:25.5056
0;-11;30;3;4;2;0;1;687225d9-8424-40aa-9148-93617b152e31;2025-04-25 10:36:25.5056
0;-17;-7;-1;13;6;3;0;687225d9-8424-40aa-9148-93617b152e31;2025-04-25 10:36:25.5226
-1;19;5;7;-1;-3;0;-1;687225d9-8424-40aa-9148-93617b152e31;2025-04-25 10:36:25.5226
-1;7;-1;-6;-12;-5;-2;-3;687225d9-8424-40aa-9148-93617b152e31;2025-04-25 10:36:25.5236
7;35;40;-13;2;1;1;2;687225d9-8424-40aa-9148-93617b152e31;2025-04-25 10:36:25.5236
0;-27;-18;-2;12;5;-1;-2;687225d9-8424-40aa-9148-93617b152e31;2025-04-25 10:36:25.5246
7;12;55;23;5;4;1;2;687225d9-8424-40aa-9148-93617b152e31;2025-04-25 10:36:25.5246
-2;17;-102;-2;3;-1;-1;-2;687225d9-8424-40aa-9148-93617b152e31;2025-04-25 10:36:25.5296
-4;-50;6;6;-1;-5;-3;-3;687225d9-8424-40aa-9148-93617b152e31;2025-04-25 10:36:25.5296
0;35;52;-5;-8;-3;-1;-1;687225d9-8424-40aa-9148-93617b152e31;2025-04-25 10:36:25.5346
-6;-29;-83;-13;-7;-5;-2;-3;687225d9-8424-40aa-9148-93617b152e31;2025-04-25 10:36:25.5346
5;28;74;6;4;2;0;3;687225d9-8424-40aa-9148-93617b152e31;2025-04-25 10:36:25.5575
-5;-24;-47;2;-1;2;0;-1;687225d9-8424-40aa-9148-93617b152e31;2025-04-25 10:36:25.5575
-1;-3;12;-2;0;1;-1;-1;687225d9-8424-40aa-9148-93617b152e31;2025-04-25 10:36:25.5875
-1;4;7;2;0;-5;1;0;687225d9-8424-40aa-9148-93617b152e31;2025-04-25 10:36:25.5875
-1;-9;-7;-7;-8;-7;-3;-3;687225d9-8424-40aa-9148-93617b152e31;2025-04-25 10:36:25.5974
-5;-4;-23;-6;-4;1;-2;-3;687225d9-8424-40aa-9148-93617b152e31;2025-04-25 10:36:25.5974
1;-6;27;14;-3;-3;0;1;687225d9-8424-40aa-9148-93617b152e31;2025-04-25 10:36:25.5994
3;34;-13;-4;-2;-2;0;1;687225d9-8424-40aa-9148-93617b152e31;2025-04-25 10:36:25.5994
-5;-50;-9;-11;3;4;-1;-3;687225d9-8424-40aa-9148-93617b152e31;2025-04-25 10:36:25.6004
-3;6;6;-4;11;4;0;0;687225d9-8424-40aa-9148-93617b152e31;2025-04-25 10:36:25.6004
0;14;31;11;-7;-3;-2;-1;687225d9-8424-40aa-9148-93617b152e31;2025-04-25 10:36:25.6174
-1;-9;-5;-4;2;-1;1;0;687225d9-8424-40aa-9148-93617b152e31;2025-04-25 10:36:25.6174
-1;3;5;1;-1;2;1;0;687225d9-8424-40aa-9148-93617b152e31;2025-04-25 10:36:25.6283
-6;-3;-46;-7;-2;-5;-4;-3;687225d9-8424-40aa-9148-93617b152e31;2025-04-25 10:36:25.6283
0;1;65;2;-4;-2;0;-1;687225d9-8424-40aa-9148-93617b152e31;2025-04-25 10:36:25.6293
-1;-5;-10;-1;-5;-3;-1;-1;687225d9-8424-40aa-9148-93617b152e31;2025-04-25 10:36:25.6293
0;21;-10;-3;-1;-2;-1;-3;687225d9-8424-40aa-9148-93617b152e31;2025-04-25 10:36:25.6563
-2;-26;19;-2;0;1;0;0;687225d9-8424-40aa-9148-93617b152e31;2025-04-25 10:36:25.6563
-2;5;-5;-1;0;0;-1;-1;687225d9-8424-40aa-9148-93617b152e31;2025-04-25 10:36:25.6573
1;5;17;2;-4;0;-1;0;687225d9-8424-40aa-9148-93617b152e31;2025-04-25 10:36:25.6573
-1;-8;-3;1;3;1;0;-1;687225d9-8424-40aa-9148-93617b152e31;2025-04-25 10:36:25.6643
-1;6;11;-4;-2;-1;0;-1;687225d9-8424-40aa-9148-93617b152e31;2025-04-25 10:36:25.6643
-1;-9;-21;-1;0;-2;2;0;687225d9-8424-40aa-9148-93617b152e31;2025-04-25 10:36:25.6653
-2;0;-11;-5;2;-1;0;-2;687225d9-8424-40aa-9148-93617b152e31;2025-04-25 10:36:25.6653
-5;-9;-20;1;-2;0;-2;0;687225d9-8424-40aa-9148-93617b152e31;2025-04-25 10:36:25.6673
7;13;19;0;2;2;1;2;687225d9-8424-40aa-9148-93617b152e31;2025-04-25 10:36:25.6673
-9;-18;-32;-15;0;-1;-3;-4;687225d9-8424-40aa-9148-93617b152e31;2025-04-25 10:36:25.6852
-1;-11;0;6;-3;-1;-1;0;687225d9-8424-40aa-9148-93617b152e31;2025-04-25 10:36:25.6852
1;-4;3;5;-2;-1;1;0;687225d9-8424-40aa-9148-93617b152e31;2025-04-25 10:36:25.6942
0;0;4;-2;0;-2;0;-1;687225d9-8424-40aa-9148-93617b152e31;2025-04-25 10:36:25.6942
2;17;4;0;-1;2;-1;1;687225d9-8424-40aa-9148-93617b152e31;2025-04-25 10:36:25.6997
-1;-13;1;2;-2;0;-1;1;687225d9-8424-40aa-9148-93617b152e31;2025-04-25 10:36:25.6997
-2;-6;-12;-14;-4;-5;0;-2;687225d9-8424-40aa-9148-93617b152e31;2025-04-25 10:36:25.7256
0;10;-3;-4;-3;-3;-2;0;687225d9-8424-40aa-9148-93617b152e31;2025-04-25 10:36:25.7256
3;-26;-3;7;1;1;0;1;687225d9-8424-40aa-9148-93617b152e31;2025-04-25 10:36:25.7266
-3;28;-7;-1;0;-1;1;-2;687225d9-8424-40aa-9148-93617b152e31;2025-04-25 10:36:25.7266
2;12;12;-6;1;1;-2;3;687225d9-8424-40aa-9148-93617b152e31;2025-04-25 10:36:25.7296
-2;-2;0;2;-1;-2;-2;-1;687225d9-8424-40aa-9148-93617b152e31;2025-04-25 10:36:25.7296
-1;7;-3;-7;-3;-8;-1;-1;687225d9-8424-40aa-9148-93617b152e31;2025-04-25 10:36:25.7466
0;-11;12;2;-7;-2;-2;-3;687225d9-8424-40aa-9148-93617b152e31;2025-04-25 10:36:25.7466
-2;-15;-10;3;4;2;1;0;687225d9-8424-40aa-9148-93617b152e31;2025-04-25 10:36:25.7476
-3;4;8;-1;2;1;-1;-1;687225d9-8424-40aa-9148-93617b152e31;2025-04-25 10:36:25.7476
0;3;14;2;0;-1;-1;0;687225d9-8424-40aa-9148-93617b152e31;2025-04-25 10:36:25.7595
1;7;0;8;-6;-2;-2;1;687225d9-8424-40aa-9148-93617b152e31;2025-04-25 10:36:25.7595
-2;0;-14;-22;-7;-4;-1;-2;687225d9-8424-40aa-9148-93617b152e31;2025-04-25 10:36:25.7685
1;-9;-10;2;16;3;1;-1;687225d9-8424-40aa-9148-93617b152e31;2025-04-25 10:36:25.7695
0;6;-2;7;-5;-1;-1;-1;687225d9-8424-40aa-9148-93617b152e31;2025-04-25 10:36:25.7835
1;4;15;-4;0;-1;0;-2;687225d9-8424-40aa-9148-93617b152e31;2025-04-25 10:36:25.7835
1;-7;14;9;-2;1;-1;1;687225d9-8424-40aa-9148-93617b152e31;2025-04-25 10:36:25.7855
-3;13;-11;-3;-5;-1;-2;-1;687225d9-8424-40aa-9148-93617b152e31;2025-04-25 10:36:25.7855
-1;2;-5;-8;1;0;-2;-2;687225d9-8424-40aa-9148-93617b152e31;2025-04-25 10:36:25.8064
-1;-2;1;1;-1;0;-2;1;687225d9-8424-40aa-9148-93617b152e31;2025-04-25 10:36:25.8064
1;4;-4;5;0;0;-1;-1;687225d9-8424-40aa-9148-93617b152e31;2025-04-25 10:36:25.8074
-2;-6;3;-5;-5;-4;-1;-4;687225d9-8424-40aa-9148-93617b152e31;2025-04-25 10:36:25.8074
1;8;5;-9;-2;-2;0;1;687225d9-8424-40aa-9148-93617b152e31;2025-04-25 10:36:25.8284
-6;-35;-35;-12;0;-3;-1;-3;687225d9-8424-40aa-9148-93617b152e31;2025-04-25 10:36:25.8284
2;11;8;12;4;1;1;0;687225d9-8424-40aa-9148-93617b152e31;2025-04-25 10:36:25.8304
2;5;-7;0;-5;-1;-1;-1;687225d9-8424-40aa-9148-93617b152e31;2025-04-25 10:36:25.8304
-5;-33;-9;1;-4;-1;-4;-1;687225d9-8424-40aa-9148-93617b152e31;2025-04-25 10:36:25.8433
2;3;4;-1;0;1;0;-2;687225d9-8424-40aa-9148-93617b152e31;2025-04-25 10:36:25.8433
-2;-9;2;-4;-1;0;1;-2;687225d9-8424-40aa-9148-93617b152e31;2025-04-25 10:36:25.8453
0;19;12;5;-1;-1;0;-1;687225d9-8424-40aa-9148-93617b152e31;2025-04-25 10:36:25.8453
-3;2;-15;4;-6;-3;-2;-1;687225d9-8424-40aa-9148-93617b152e31;2025-04-25 10:36:25.8653
-1;5;15;-9;-1;-3;0;0;687225d9-8424-40aa-9148-93617b152e31;2025-04-25 10:36:25.8653
-1;-8;-3;3;3;3;1;2;687225d9-8424-40aa-9148-93617b152e31;2025-04-25 10:36:25.8743
-1;-5;10;-1;-6;-1;0;1;687225d9-8424-40aa-9148-93617b152e31;2025-04-25 10:36:25.8743
1;2;-12;2;7;2;1;0;687225d9-8424-40aa-9148-93617b152e31;2025-04-25 10:36:25.8803
-3;7;-9;2;-1;-2;-4;-1;687225d9-8424-40aa-9148-93617b152e31;2025-04-25 10:36:25.8803
-1;3;-4;0;-3;-5;-1;-1;687225d9-8424-40aa-9148-93617b152e31;2025-04-25 10:36:25.9062
-1;-7;-1;-8;-2;-1;-1;1;687225d9-8424-40aa-9148-93617b152e31;2025-04-25 10:36:25.9062
3;30;10;3;-5;1;0;0;687225d9-8424-40aa-9148-93617b152e31;2025-04-25 10:36:25.9062
-5;-52;-14;-6;7;2;-1;-2;687225d9-8424-40aa-9148-93617b152e31;2025-04-25 10:36:25.9062
-1;6;-11;-1;3;2;-1;0;687225d9-8424-40aa-9148-93617b152e31;2025-04-25 10:36:25.9102
-2;-15;-5;-2;-5;-3;-2;-2;687225d9-8424-40aa-9148-93617b152e31;2025-04-25 10:36:25.9102
2;7;6;4;0;0;1;-1;687225d9-8424-40aa-9148-93617b152e31;2025-04-25 10:36:25.9331
5;32;11;7;-1;0;1;1;687225d9-8424-40aa-9148-93617b152e31;2025-04-25 10:36:25.9331
-3;-32;-8;-4;-1;-1;-3;-2;687225d9-8424-40aa-9148-93617b152e31;2025-04-25 10:36:25.9417
-2;0;-2;-2;-4;-3;-3;-3;687225d9-8424-40aa-9148-93617b152e31;2025-04-25 10:36:25.9417
-2;-2;9;-1;-2;1;0;-2;687225d9-8424-40aa-9148-93617b152e31;2025-04-25 10:36:25.9427
4;13;0;7;4;2;-1;1;687225d9-8424-40aa-9148-93617b152e31;2025-04-25 10:36:25.9427
-3;-3;6;-4;-2;-4;-1;-2;687225d9-8424-40aa-9148-93617b152e31;2025-04-25 10:36:25.9486
1;18;-18;3;5;1;0;-1;687225d9-8424-40aa-9148-93617b152e31;2025-04-25 10:36:25.9486
-3;-35;-8;-10;-4;-4;-2;-2;687225d9-8424-40aa-9148-93617b152e31;2025-04-25 10:36:25.9706
-1;10;-1;-7;-6;-2;0;0;687225d9-8424-40aa-9148-93617b152e31;2025-04-25 10:36:25.9706
-1;-2;-8;3;-4;0;-1;-1;687225d9-8424-40aa-9148-93617b152e31;2025-04-25 10:36:25.9786
0;2;9;-3;3;1;-1;-1;687225d9-8424-40aa-9148-93617b152e31;2025-04-25 10:36:25.9786
-2;-9;-3;2;0;0;0;-1;687225d9-8424-40aa-9148-93617b152e31;2025-04-25 10:36:25.9855
0;-14;-7;-6;-3;-2;0;0;687225d9-8424-40aa-9148-93617b152e31;2025-04-25 10:36:25.9855
-2;4;-7;-7;-1;-1;-2;0;687225d9-8424-40aa-9148-93617b152e31;2025-04-25 10:36:26.0165
3;22;5;11;8;1;-1;1;687225d9-8424-40aa-9148-93617b152e31;2025-04-25 10:36:26.0165
-4;12;-5;-6;-1;-1;-3;-2;687225d9-8424-40aa-9148-93617b152e31;2025-04-25 10:36:26.0175
1;10;6;3;-5;-4;-1;-1;687225d9-8424-40aa-9148-93617b152e31;2025-04-25 10:36:26.0175
0;-4;16;-1;-8;-3;-2;-3;687225d9-8424-40aa-9148-93617b152e31;2025-04-25 10:36:26.0195
-2;-13;-32;-1;1;1;0;0;687225d9-8424-40aa-9148-93617b152e31;2025-04-25 10:36:26.0195
2;8;-21;1;5;-1;1;-1;687225d9-8424-40aa-9148-93617b152e31;2025-04-25 10:36:26.0234
-2;-14;-13;3;0;1;-1;-1;687225d9-8424-40aa-9148-93617b152e31;2025-04-25 10:36:26.0234
0;6;4;-1;-1;-1;1;-2;687225d9-8424-40aa-9148-93617b152e31;2025-04-25 10:36:26.0474
-1;-7;19;-1;-7;-3;0;0;687225d9-8424-40aa-9148-93617b152e31;2025-04-25 10:36:26.0474
-1;14;-5;-14;-2;-4;-1;-1;687225d9-8424-40aa-9148-93617b152e31;2025-04-25 10:36:26.0484
-6;-32;11;0;-4;-2;0;-1;687225d9-8424-40aa-9148-93617b152e31;2025-04-25 10:36:26.0484
0;9;-13;-1;0;1;-2;1;687225d9-8424-40aa-9148-93617b152e31;2025-04-25 10:36:26.0524
-2;-10;21;3;-3;-2;-1;-1;687225d9-8424-40aa-9148-93617b152e31;2025-04-25 10:36:26.0524
0;3;5;0;-3;0;-2;-2;687225d9-8424-40aa-9148-93617b152e31;2025-04-25 10:36:26.0843
0;-1;1;-1;-4;-2;-3;-1;687225d9-8424-40aa-9148-93617b152e31;2025-04-25 10:36:26.0843
1;1;-7;6;0;-1;0;-2;687225d9-8424-40aa-9148-93617b152e31;2025-04-25 10:36:26.0853
-3;-6;-23;-7;11;6;2;0;687225d9-8424-40aa-9148-93617b152e31;2025-04-25 10:36:26.0863
3;25;20;6;0;0;0;1;687225d9-8424-40aa-9148-93617b152e31;2025-04-25 10:36:26.0913
-4;6;-32;-8;-4;-4;-3;-4;687225d9-8424-40aa-9148-93617b152e31;2025-04-25 10:36:26.0913
0;-16;12;7;-1;0;-2;1;687225d9-8424-40aa-9148-93617b152e31;2025-04-25 10:36:26.0933
0;-3;2;5;0;3;-1;0;687225d9-8424-40aa-9148-93617b152e31;2025-04-25 10:36:26.0933
-1;4;11;-7;0;0;-1;0;687225d9-8424-40aa-9148-93617b152e31;2025-04-25 10:36:26.1132
1;13;5;3;2;-3;-2;0;687225d9-8424-40aa-9148-93617b152e31;2025-04-25 10:36:26.1132
-2;2;-4;-2;-3;-3;0;-1;687225d9-8424-40aa-9148-93617b152e31;2025-04-25 10:36:26.1212
-2;-3;1;-1;-5;-2;-2;-1;687225d9-8424-40aa-9148-93617b152e31;2025-04-25 10:36:26.1212
-1;-9;-7;-1;3;2;-1;-1;687225d9-8424-40aa-9148-93617b152e31;2025-04-25 10:36:26.1292
0;-2;11;4;-2;-1;0;1;687225d9-8424-40aa-9148-93617b152e31;2025-04-25 10:36:26.1292
1;-4;-44;-7;-1;-2;-2;0;687225d9-8424-40aa-9148-93617b152e31;2025-04-25 10:36:26.1302
-4;1;26;-7;-5;-2;-3;-3;687225d9-8424-40aa-9148-93617b152e31;2025-04-25 10:36:26.1302
0;-28;-11;4;-3;-3;1;-1;687225d9-8424-40aa-9148-93617b152e31;2025-04-25 10:36:26.1511
1;-1;-13;-9;0;0;-1;0;687225d9-8424-40aa-9148-93617b152e31;2025-04-25 10:36:26.1511
0;14;11;7;9;2;4;2;687225d9-8424-40aa-9148-93617b152e31;2025-04-25 10:36:26.1531
3;-3;14;-1;-2;-2;0;-1;687225d9-8424-40aa-9148-93617b152e31;2025-04-25 10:36:26.1531
-5;-17;-13;3;-6;-2;-2;-2;687225d9-8424-40aa-9148-93617b152e31;2025-04-25 10:36:26.1890
-3;12;-15;-8;-2;-1;-2;-3;687225d9-8424-40aa-9148-93617b152e31;2025-04-25 10:36:26.1890
-1;-6;8;-1;1;0;-2;-1;687225d9-8424-40aa-9148-93617b152e31;2025-04-25 10:36:26.1910
1;0;6;6;-2;1;0;-1;687225d9-8424-40aa-9148-93617b152e31;2025-04-25 10:36:26.1910
2;3;6;-2;0;-1;1;0;687225d9-8424-40aa-9148-93617b152e31;2025-04-25 10:36:26.1960
0;-3;3;1;-1;0;0;0;687225d9-8424-40aa-9148-93617b152e31;2025-04-25 10:36:26.1960
0;3;9;0;-1;-1;1;-1;687225d9-8424-40aa-9148-93617b152e31;2025-04-25 10:36:26.1975
-1;10;-6;-3;-6;-5;-2;-1;687225d9-8424-40aa-9148-93617b152e31;2025-04-25 10:36:26.1975
-1;-6;-3;-5;-2;1;-1;0;687225d9-8424-40aa-9148-93617b152e31;2025-04-25 10:36:26.2035
1;5;1;-1;-1;0;0;-1;687225d9-8424-40aa-9148-93617b152e31;2025-04-25 10:36:26.2035
0;-1;2;-4;-4;-3;-3;-1;687225d9-8424-40aa-9148-93617b152e31;2025-04-25 10:36:26.2095
-2;-15;-16;1;-5;-2;-2;0;687225d9-8424-40aa-9148-93617b152e31;2025-04-25 10:36:26.2095
-3;5;-2;-5;15;4;1;1;687225d9-8424-40aa-9148-93617b152e31;2025-04-25 10:36:26.2264
0;-9;0;7;6;2;1;2;687225d9-8424-40aa-9148-93617b152e31;2025-04-25 10:36:26.2264
-2;4;4;-2;-3;-2;-2;-2;687225d9-8424-40aa-9148-93617b152e31;2025-04-25 10:36:26.2274
0;-11;-4;-1;-2;-2;0;1;687225d9-8424-40aa-9148-93617b152e31;2025-04-25 10:36:26.2274
2;6;4;6;-5;-2;-1;1;687225d9-8424-40aa-9148-93617b152e31;2025-04-25 10:36:26.2479
-1;4;3;3;2;2;-1;-1;687225d9-8424-40aa-9148-93617b152e31;2025-04-25 10:36:26.2479
-1;-3;-3;0;2;-1;0;-1;687225d9-8424-40aa-9148-93617b152e31;2025-04-25 10:36:26.2654
-1;-5;-6;-1;-4;-3;-2;-1;687225d9-8424-40aa-9148-93617b152e31;2025-04-25 10:36:26.2654
0;-1;4;-2;-2;-4;-1;1;687225d9-8424-40aa-9148-93617b152e31;2025-04-25 10:36:26.2664
0;16;5;-3;-1;-1;0;-1;687225d9-8424-40aa-9148-93617b152e31;2025-04-25 10:36:26.2664
-5;-30;-5;-3;-5;-1;0;-2;687225d9-8424-40aa-9148-93617b152e31;2025-04-25 10:36:26.2704
0;0;-2;-1;3;0;-2;0;687225d9-8424-40aa-9148-93617b152e31;2025-04-25 10:36:26.2704
-1;-1;-5;0;-1;0;-2;-2;687225d9-8424-40aa-9148-93617b152e31;2025-04-25 10:36:26.2863
-3;6;2;1;-2;-4;-2;-2;687225d9-8424-40aa-9148-93617b152e31;2025-04-25 10:36:26.2863
1;28;13;-2;-1;2;0;-2;687225d9-8424-40aa-9148-93617b152e31;2025-04-25 10:36:26.2873
-1;-2;-2;3;1;1;2;-1;687225d9-8424-40aa-9148-93617b152e31;2025-04-25 10:36:26.2883
0;12;15;-1;1;1;0;1;687225d9-8424-40aa-9148-93617b152e31;2025-04-25 10:36:26.3083
0;-53;-9;2;3;-1;2;0;687225d9-8424-40aa-9148-93617b152e31;2025-04-25 10:36:26.3093
-2;0;-20;-5;-2;-3;-1;-3;687225d9-8424-40aa-9148-93617b152e31;2025-04-25 10:36:26.3103
-2;1;15;-1;3;2;-1;0;687225d9-8424-40aa-9148-93617b152e31;2025-04-25 10:36:26.3103
-1;0;-1;4;-5;-1;-1;-2;687225d9-8424-40aa-9148-93617b152e31;2025-04-25 10:36:26.3312
1;18;33;-3;-5;-1;-2;0;687225d9-8424-40aa-9148-93617b152e31;2025-04-25 10:36:26.3312
-1;-4;-26;-1;0;0;-1;0;687225d9-8424-40aa-9148-93617b152e31;2025-04-25 10:36:26.3332
0;-9;-4;-2;-1;-1;-2;0;687225d9-8424-40aa-9148-93617b152e31;2025-04-25 10:36:26.3332
-1;5;3;0;-3;-1;-2;-3;687225d9-8424-40aa-9148-93617b152e31;2025-04-25 10:36:26.3462
-2;4;-3;-2;-1;-1;-1;1;687225d9-8424-40aa-9148-93617b152e31;2025-04-25 10:36:26.3462
-1;-10;6;0;0;2;-1;0;687225d9-8424-40aa-9148-93617b152e31;2025-04-25 10:36:26.3482
-1;5;-6;-1;-3;-1;-2;0;687225d9-8424-40aa-9148-93617b152e31;2025-04-25 10:36:26.3482
-1;-8;-6;-4;-1;-2;0;-2;687225d9-8424-40aa-9148-93617b152e31;2025-04-25 10:36:26.3686
2;9;-3;3;1;1;0;0;687225d9-8424-40aa-9148-93617b152e31;2025-04-25 10:36:26.3686
0;-7;5;1;3;0;-2;0;687225d9-8424-40aa-9148-93617b152e31;2025-04-25 10:36:26.3706
-7;-14;-20;-3;-1;-2;0;-1;687225d9-8424-40aa-9148-93617b152e31;2025-04-25 10:36:26.3706
-1;-1;8;0;-2;-3;-1;0;687225d9-8424-40aa-9148-93617b152e31;2025-04-25 10:36:26.3836
2;3;-5;-2;-2;-1;-1;0;687225d9-8424-40aa-9148-93617b152e31;2025-04-25 10:36:26.3836
1;7;12;-1;-1;0;-2;2;687225d9-8424-40aa-9148-93617b152e31;2025-04-25 10:36:26.3896
2;1;3;-3;-1;-1;-2;-9;687225d9-8424-40aa-9148-93617b152e31;2025-04-25 10:36:26.3896
-1;-11;-13;-2;-1;-2;1;3;687225d9-8424-40aa-9148-93617b152e31;2025-04-25 10:36:26.4064
3;4;-11;0;-2;-3;-1;4;687225d9-8424-40aa-9148-93617b152e31;2025-04-25 10:36:26.4064
-1;11;21;-2;-3;-2;-4;-5;687225d9-8424-40aa-9148-93617b152e31;2025-04-25 10:36:26.4074
-3;-7;4;-1;-2;0;3;4;687225d9-8424-40aa-9148-93617b152e31;2025-04-25 10:36:26.4074
-6;12;0;-1;-1;0;-4;0;687225d9-8424-40aa-9148-93617b152e31;2025-04-25 10:36:26.4363
0;2;23;0;0;-1;-4;-3;687225d9-8424-40aa-9148-93617b152e31;2025-04-25 10:36:26.4363
-1;-15;2;2;-2;-1;-1;-4;687225d9-8424-40aa-9148-93617b152e31;2025-04-25 10:36:26.4383
-1;6;-31;-4;-1;-1;-1;-2;687225d9-8424-40aa-9148-93617b152e31;2025-04-25 10:36:26.4383
2;8;1;0;2;-1;1;-1;687225d9-8424-40aa-9148-93617b152e31;2025-04-25 10:36:26.4423
1;-46;-19;-1;-4;-1;-1;-1;687225d9-8424-40aa-9148-93617b152e31;2025-04-25 10:36:26.4423
-9;2;12;5;0;-2;3;-4;687225d9-8424-40aa-9148-93617b152e31;2025-04-25 10:36:26.4513
6;16;67;-2;-1;0;-5;-1;687225d9-8424-40aa-9148-93617b152e31;2025-04-25 10:36:26.4513
-1;-13;-34;-5;-3;-3;1;1;687225d9-8424-40aa-9148-93617b152e31;2025-04-25 10:36:26.4663
3;7;0;1;0;0;2;-1;687225d9-8424-40aa-9148-93617b152e31;2025-04-25 10:36:26.4663
3;41;2;-2;-1;-3;0;2;687225d9-8424-40aa-9148-93617b152e31;2025-04-25 10:36:26.4683
-2;-4;39;4;-1;-2;1;2;687225d9-8424-40aa-9148-93617b152e31;2025-04-25 10:36:26.4683
0;7;-5;-2;-2;-2;-4;-1;687225d9-8424-40aa-9148-93617b152e31;2025-04-25 10:36:26.4892
-1;-2;-16;2;-2;1;1;-2;687225d9-8424-40aa-9148-93617b152e31;2025-04-25 10:36:26.4892
1;-21;-5;2;0;0;1;1;687225d9-8424-40aa-9148-93617b152e31;2025-04-25 10:36:26.4912
0;22;-21;-1;2;0;1;0;687225d9-8424-40aa-9148-93617b152e31;2025-04-25 10:36:26.4912
0;7;23;-4;-2;-2;-1;-3;687225d9-8424-40aa-9148-93617b152e31;2025-04-25 10:36:26.5022
-8;-29;-17;-8;-5;-4;-2;-4;687225d9-8424-40aa-9148-93617b152e31;2025-04-25 10:36:26.5022
1;25;53;-1;1;1;0;2;687225d9-8424-40aa-9148-93617b152e31;2025-04-25 10:36:26.5117
-5;-39;-89;-22;-7;-5;-3;-2;687225d9-8424-40aa-9148-93617b152e31;2025-04-25 10:36:26.5117
1;13;75;11;0;-1;-4;-3;687225d9-8424-40aa-9148-93617b152e31;2025-04-25 10:36:26.5266
1;14;-32;-7;2;2;2;0;687225d9-8424-40aa-9148-93617b152e31;2025-04-25 10:36:26.5266
0;-14;15;-2;5;-1;-2;1;687225d9-8424-40aa-9148-93617b152e31;2025-04-25 10:36:26.5276
1;-1;1;4;3;0;-1;2;687225d9-8424-40aa-9148-93617b152e31;2025-04-25 10:36:26.5276
0;-4;-22;-3;-2;-1;1;-2;687225d9-8424-40aa-9148-93617b152e31;2025-04-25 10:36:26.5486
-3;32;-17;2;-1;-1;0;0;687225d9-8424-40aa-9148-93617b152e31;2025-04-25 10:36:26.5486
-3;-59;-5;3;-5;1;-3;-3;687225d9-8424-40aa-9148-93617b152e31;2025-04-25 10:36:26.5505
-6;-4;-4;-10;-1;-1;-2;-4;687225d9-8424-40aa-9148-93617b152e31;2025-04-25 10:36:26.5505
-1;-21;-23;4;0;-1;1;1;687225d9-8424-40aa-9148-93617b152e31;2025-04-25 10:36:26.5715
0;30;57;3;-3;-2;0;-1;687225d9-8424-40aa-9148-93617b152e31;2025-04-25 10:36:26.5715
1;3;-42;-21;-3;-2;0;-1;687225d9-8424-40aa-9148-93617b152e31;2025-04-25 10:36:26.5725
5;26;30;12;7;3;3;3;687225d9-8424-40aa-9148-93617b152e31;2025-04-25 10:36:26.5725
-8;-40;-13;-13;-5;-1;-2;-3;687225d9-8424-40aa-9148-93617b152e31;2025-04-25 10:36:26.5865
-4;-15;30;7;0;-1;-2;-1;687225d9-8424-40aa-9148-93617b152e31;2025-04-25 10:36:26.5865
2;23;8;6;-6;-1;0;0;687225d9-8424-40aa-9148-93617b152e31;2025-04-25 10:36:26.5874
3;45;13;-4;-2;-2;-2;-2;687225d9-8424-40aa-9148-93617b152e31;2025-04-25 10:36:26.5874
3;-45;81;1;1;1;1;1;687225d9-8424-40aa-9148-93617b152e31;2025-04-25 10:36:26.6084
-5;-18;-28;-7;-2;-2;-1;-3;687225d9-8424-40aa-9148-93617b152e31;2025-04-25 10:36:26.6084
-5;-15;-12;-3;-4;0;-3;-1;687225d9-8424-40aa-9148-93617b152e31;2025-04-25 10:36:26.6104
0;2;4;3;-5;-9;-2;0;687225d9-8424-40aa-9148-93617b152e31;2025-04-25 10:36:26.6104
2;25;-8;11;7;4;3;1;687225d9-8424-40aa-9148-93617b152e31;2025-04-25 10:36:26.6229
1;0;11;-6;-13;-1;1;1;687225d9-8424-40aa-9148-93617b152e31;2025-04-25 10:36:26.6229
4;3;9;12;29;10;2;2;687225d9-8424-40aa-9148-93617b152e31;2025-04-25 10:36:26.6318
-2;-12;-17;1;5;0;1;-1;687225d9-8424-40aa-9148-93617b152e31;2025-04-25 10:36:26.6318
1;6;-18;-6;-5;-5;-3;-2;687225d9-8424-40aa-9148-93617b152e31;2025-04-25 10:36:26.6538
-4;2;5;-8;-7;-7;-4;-5;687225d9-8424-40aa-9148-93617b152e31;2025-04-25 10:36:26.6538
-1;4;-28;-2;-11;-3;-2;-2;687225d9-8424-40aa-9148-93617b152e31;2025-04-25 10:36:26.6558
3;9;32;4;-2;3;0;0;687225d9-8424-40aa-9148-93617b152e31;2025-04-25 10:36:26.6558
-8;-48;-58;-7;-3;-3;-2;-2;687225d9-8424-40aa-9148-93617b152e31;2025-04-25 10:36:26.6687
1;23;2;2;5;1;0;1;687225d9-8424-40aa-9148-93617b152e31;2025-04-25 10:36:26.6687
0;-13;-22;-4;-5;-3;-1;1;687225d9-8424-40aa-9148-93617b152e31;2025-04-25 10:36:26.6707
-2;-18;-24;1;1;0;-2;0;687225d9-8424-40aa-9148-93617b152e31;2025-04-25 10:36:26.6707
-1;15;-18;-5;-4;-1;-1;-2;687225d9-8424-40aa-9148-93617b152e31;2025-04-25 10:36:26.6827
0;-4;-15;4;3;0;-1;-1;687225d9-8424-40aa-9148-93617b152e31;2025-04-25 10:36:26.6827
-4;2;17;0;0;-2;-2;-2;687225d9-8424-40aa-9148-93617b152e31;2025-04-25 10:36:26.7051
-2;-18;-9;-3;-5;0;-2;0;687225d9-8424-40aa-9148-93617b152e31;2025-04-25 10:36:26.7051
2;24;-12;-2;-6;-2;-1;-2;687225d9-8424-40aa-9148-93617b152e31;2025-04-25 10:36:26.7141
-1;-6;-2;-8;0;1;-2;0;687225d9-8424-40aa-9148-93617b152e31;2025-04-25 10:36:26.7141
1;10;23;5;5;1;2;0;687225d9-8424-40aa-9148-93617b152e31;2025-04-25 10:36:26.7151
-3;-22;-19;6;7;5;1;0;687225d9-8424-40aa-9148-93617b152e31;2025-04-25 10:36:26.7151
0;11;16;6;4;1;-1;1;687225d9-8424-40aa-9148-93617b152e31;2025-04-25 10:36:26.7361
-1;-5;-1;-1;0;0;-2;1;687225d9-8424-40aa-9148-93617b152e31;2025-04-25 10:36:26.7361
0;4;-3;-8;-10;-5;-3;-1;687225d9-8424-40aa-9148-93617b152e31;2025-04-25 10:36:26.7381
-2;-1;2;-6;-8;-4;-4;-3;687225d9-8424-40aa-9148-93617b152e31;2025-04-25 10:36:26.7381
-2;2;-5;2;-2;-2;-1;-2;687225d9-8424-40aa-9148-93617b152e31;2025-04-25 10:36:26.7680
0;-3;29;5;3;1;-1;-1;687225d9-8424-40aa-9148-93617b152e31;2025-04-25 10:36:26.7680
-2;9;-9;-4;-1;-1;-1;-2;687225d9-8424-40aa-9148-93617b152e31;2025-04-25 10:36:26.7690
0;-20;-6;-1;-2;0;0;-1;687225d9-8424-40aa-9148-93617b152e31;2025-04-25 10:36:26.7690
1;16;11;-1;2;1;-1;1;687225d9-8424-40aa-9148-93617b152e31;2025-04-25 10:36:26.7700
0;-5;3;-1;-1;-1;-1;0;687225d9-8424-40aa-9148-93617b152e31;2025-04-25 10:36:26.7700
-2;-6;-21;0;-2;-2;-2;-1;687225d9-8424-40aa-9148-93617b152e31;2025-04-25 10:36:26.7740
0;15;31;0;1;0;-1;-1;687225d9-8424-40aa-9148-93617b152e31;2025-04-25 10:36:26.7740
0;-11;10;-2;-3;-2;0;-1;687225d9-8424-40aa-9148-93617b152e31;2025-04-25 10:36:26.7889
-2;-27;14;2;0;0;-1;-2;687225d9-8424-40aa-9148-93617b152e31;2025-04-25 10:36:26.7889
0;-8;-10;1;-2;0;-1;2;687225d9-8424-40aa-9148-93617b152e31;2025-04-25 10:36:26.7899
-1;6;10;-2;-2;-2;0;-1;687225d9-8424-40aa-9148-93617b152e31;2025-04-25 10:36:26.7899
0;4;-13;0;4;2;-1;-1;687225d9-8424-40aa-9148-93617b152e31;2025-04-25 10:36:26.8029
-1;10;-18;1;2;-1;1;-1;687225d9-8424-40aa-9148-93617b152e31;2025-04-25 10:36:26.8029
-2;-3;14;1;-2;-3;0;-1;687225d9-8424-40aa-9148-93617b152e31;2025-04-25 10:36:26.8109
-1;-2;2;-2;-1;-2;-2;0;687225d9-8424-40aa-9148-93617b152e31;2025-04-25 10:36:26.8119
-2;6;-3;-2;-2;-1;-1;1;687225d9-8424-40aa-9148-93617b152e31;2025-04-25 10:36:26.8333
1;-1;-10;0;0;1;0;0;687225d9-8424-40aa-9148-93617b152e31;2025-04-25 10:36:26.8333
-2;-5;-4;-5;-3;-1;-1;-2;687225d9-8424-40aa-9148-93617b152e31;2025-04-25 10:36:26.8413
-1;3;13;0;-2;-1;-2;-1;687225d9-8424-40aa-9148-93617b152e31;2025-04-25 10:36:26.8413
-1;3;-3;-2;1;0;-1;-1;687225d9-8424-40aa-9148-93617b152e31;2025-04-25 10:36:26.8732
0;-2;-1;1;1;-3;2;-1;687225d9-8424-40aa-9148-93617b152e31;2025-04-25 10:36:26.8732
0;1;-28;-2;-3;0;-1;-1;687225d9-8424-40aa-9148-93617b152e31;2025-04-25 10:36:26.8742
-1;7;25;4;-1;0;-1;-1;687225d9-8424-40aa-9148-93617b152e31;2025-04-25 10:36:26.8742
-2;-9;-4;0;0;0;-2;-1;687225d9-8424-40aa-9148-93617b152e31;2025-04-25 10:36:26.8752
-3;8;34;-3;-2;-2;-1;-1;687225d9-8424-40aa-9148-93617b152e31;2025-04-25 10:36:26.8752
3;1;8;1;-3;0;0;0;687225d9-8424-40aa-9148-93617b152e31;2025-04-25 10:36:26.8792
-3;-8;-12;-4;-1;-2;0;0;687225d9-8424-40aa-9148-93617b152e31;2025-04-25 10:36:26.8792
2;10;10;3;2;0;-1;0;687225d9-8424-40aa-9148-93617b152e31;2025-04-25 10:36:26.8937
-1;7;-4;0;-2;-2;1;-1;687225d9-8424-40aa-9148-93617b152e31;2025-04-25 10:36:26.8937
-2;-9;-7;1;4;2;1;-3;687225d9-8424-40aa-9148-93617b152e31;2025-04-25 10:36:26.8957
-1;-4;-22;-3;-2;-2;0;-1;687225d9-8424-40aa-9148-93617b152e31;2025-04-25 10:36:26.8957
-1;0;1;-1;-1;-1;0;-2;687225d9-8424-40aa-9148-93617b152e31;2025-04-25 10:36:26.9096
0;0;-33;-3;-3;2;0;0;687225d9-8424-40aa-9148-93617b152e31;2025-04-25 10:36:26.9096
-4;-1;28;-2;-4;-5;-2;0;687225d9-8424-40aa-9148-93617b152e31;2025-04-25 10:36:26.9106
0;-7;7;0;0;0;-1;-1;687225d9-8424-40aa-9148-93617b152e31;2025-04-25 10:36:26.9106
0;2;-4;-1;0;0;0;1;687225d9-8424-40aa-9148-93617b152e31;2025-04-25 10:36:26.9475
1;-4;-16;0;2;0;-2;-1;687225d9-8424-40aa-9148-93617b152e31;2025-04-25 10:36:26.9475
-2;0;14;-1;-2;-1;-1;-2;687225d9-8424-40aa-9148-93617b152e31;2025-04-25 10:36:26.9495
0;-4;-11;-2;-2;-2;-2;1;687225d9-8424-40aa-9148-93617b152e31;2025-04-25 10:36:26.9495
0;-3;4;-4;-4;-3;-1;1;687225d9-8424-40aa-9148-93617b152e31;2025-04-25 10:36:26.9495
0;6;21;3;-1;0;-2;-2;687225d9-8424-40aa-9148-93617b152e31;2025-04-25 10:36:26.9495
2;0;-7;3;2;0;1;8;687225d9-8424-40aa-9148-93617b152e31;2025-04-25 10:36:26.9615
0;-4;-11;2;2;0;-1;-3;687225d9-8424-40aa-9148-93617b152e31;2025-04-25 10:36:26.9615
0;-2;-5;-1;-1;-1;1;1;687225d9-8424-40aa-9148-93617b152e31;2025-04-25 10:36:26.9755
-1;-2;-3;-5;-2;0;-2;-9;687225d9-8424-40aa-9148-93617b152e31;2025-04-25 10:36:26.9755
-1;-3;-2;-2;-3;-3;1;0;687225d9-8424-40aa-9148-93617b152e31;2025-04-25 10:36:26.9835
-2;-2;-7;-4;-1;0;-1;1;687225d9-8424-40aa-9148-93617b152e31;2025-04-25 10:36:26.9845
1;2;0;-1;-1;-1;-3;-4;687225d9-8424-40aa-9148-93617b152e31;2025-04-25 10:36:27.0159
-3;2;-7;1;-1;1;2;2;687225d9-8424-40aa-9148-93617b152e31;2025-04-25 10:36:27.0159
0;-3;1;-1;-2;-2;2;0;687225d9-8424-40aa-9148-93617b152e31;2025-04-25 10:36:27.0169
2;0;1;1;0;-1;-1;25;687225d9-8424-40aa-9148-93617b152e31;2025-04-25 10:36:27.0169
-6;-1;17;-2;0;0;-1;-40;687225d9-8424-40aa-9148-93617b152e31;2025-04-25 10:36:27.0209
0;-3;-5;-1;1;-1;0;0;687225d9-8424-40aa-9148-93617b152e31;2025-04-25 10:36:27.0219
-2;0;-5;-1;-1;0;-1;-6;687225d9-8424-40aa-9148-93617b152e31;2025-04-25 10:36:27.0229
-1;-4;-9;-1;-1;-3;0;2;687225d9-8424-40aa-9148-93617b152e31;2025-04-25 10:36:27.0229
0;0;7;0;-2;0;-1;9;687225d9-8424-40aa-9148-93617b152e31;2025-04-25 10:36:27.0528
1;0;-4;-1;0;-1;-2;-3;687225d9-8424-40aa-9148-93617b152e31;2025-04-25 10:36:27.0528
-1;-2;-19;-2;0;1;0;0;687225d9-8424-40aa-9148-93617b152e31;2025-04-25 10:36:27.0538
-2;0;23;-2;-1;-2;-2;-7;687225d9-8424-40aa-9148-93617b152e31;2025-04-25 10:36:27.0538
-2;-1;-2;0;2;-2;-1;7;687225d9-8424-40aa-9148-93617b152e31;2025-04-25 10:36:27.0548
-1;-1;0;1;0;-1;-1;-2;687225d9-8424-40aa-9148-93617b152e31;2025-04-25 10:36:27.0548
0;-2;-18;-1;0;1;-1;1;687225d9-8424-40aa-9148-93617b152e31;2025-04-25 10:36:27.0677
-1;-3;-18;-4;-2;0;-1;-9;687225d9-8424-40aa-9148-93617b152e31;2025-04-25 10:36:27.0677
-1;-3;-2;-1;-2;-1;1;4;687225d9-8424-40aa-9148-93617b152e31;2025-04-25 10:36:27.0687
0;0;8;0;-2;0;-2;3;687225d9-8424-40aa-9148-93617b152e31;2025-04-25 10:36:27.0687
1;1;6;0;-1;0;-4;-2;687225d9-8424-40aa-9148-93617b152e31;2025-04-25 10:36:27.0797
-1;-1;-6;-1;-3;1;-1;-4;687225d9-8424-40aa-9148-93617b152e31;2025-04-25 10:36:27.0797
-1;-1;7;-3;-1;0;1;3;687225d9-8424-40aa-9148-93617b152e31;2025-04-25 10:36:27.0887
-3;-9;-23;-2;-4;-2;0;-1;687225d9-8424-40aa-9148-93617b152e31;2025-04-25 10:36:27.0887
-1;1;1;1;-3;0;0;-2;687225d9-8424-40aa-9148-93617b152e31;2025-04-25 10:36:27.0907
-1;-1;-3;-1;-1;-1;1;-6;687225d9-8424-40aa-9148-93617b152e31;2025-04-25 10:36:27.0907
0;0;1;1;-3;-1;-1;5;687225d9-8424-40aa-9148-93617b152e31;2025-04-25 10:36:27.1191
0;1;4;-1;-1;-1;0;2;687225d9-8424-40aa-9148-93617b152e31;2025-04-25 10:36:27.1191
-1;-1;4;-2;1;-1;0;-2;687225d9-8424-40aa-9148-93617b152e31;2025-04-25 10:36:27.1201
1;-2;-2;-1;0;0;2;1;687225d9-8424-40aa-9148-93617b152e31;2025-04-25 10:36:27.1201
0;-1;-7;0;-2;-1;-5;1;687225d9-8424-40aa-9148-93617b152e31;2025-04-25 10:36:27.1570
0;1;4;-1;-1;0;8;2;687225d9-8424-40aa-9148-93617b152e31;2025-04-25 10:36:27.1570
-1;1;7;1;-2;-2;-2;2;687225d9-8424-40aa-9148-93617b152e31;2025-04-25 10:36:27.1580
1;1;-1;-1;-1;-3;0;-2;687225d9-8424-40aa-9148-93617b152e31;2025-04-25 10:36:27.1580
-2;0;-7;-2;-1;0;0;2;687225d9-8424-40aa-9148-93617b152e31;2025-04-25 10:36:27.1730
-1;0;-2;1;-1;-1;-4;-3;687225d9-8424-40aa-9148-93617b152e31;2025-04-25 10:36:27.1730
0;2;16;-1;-1;-3;1;0;687225d9-8424-40aa-9148-93617b152e31;2025-04-25 10:36:27.1740
-1;-3;-12;0;0;1;0;-3;687225d9-8424-40aa-9148-93617b152e31;2025-04-25 10:36:27.1740
-1;-5;-30;-4;-4;-2;-1;1;687225d9-8424-40aa-9148-93617b152e31;2025-04-25 10:36:27.1750
0;-3;8;-2;-1;-2;-3;2;687225d9-8424-40aa-9148-93617b152e31;2025-04-25 10:36:27.1750
-1;1;0;0;0;0;0;-3;687225d9-8424-40aa-9148-93617b152e31;2025-04-25 10:36:27.1949
0;2;11;0;0;-1;-3;-2;687225d9-8424-40aa-9148-93617b152e31;2025-04-25 10:36:27.1949
0;-2;1;2;0;0;0;-2;687225d9-8424-40aa-9148-93617b152e31;2025-04-25 10:36:27.1949
-2;6;3;0;2;1;0;3;687225d9-8424-40aa-9148-93617b152e31;2025-04-25 10:36:27.1949
0;-10;4;1;0;1;0;0;687225d9-8424-40aa-9148-93617b152e31;2025-04-25 10:36:27.1969
-4;-7;-14;-5;-2;-3;-1;-5;687225d9-8424-40aa-9148-93617b152e31;2025-04-25 10:36:27.1969
-3;7;13;-7;-8;-6;-5;0;687225d9-8424-40aa-9148-93617b152e31;2025-04-25 10:36:27.2233
0;2;-4;1;1;-1;-2;-2;687225d9-8424-40aa-9148-93617b152e31;2025-04-25 10:36:27.2243
10;6;22;26;8;5;4;1;687225d9-8424-40aa-9148-93617b152e31;2025-04-25 10:36:27.2253
-5;9;-8;-11;6;-5;-1;0;687225d9-8424-40aa-9148-93617b152e31;2025-04-25 10:36:27.2253
-3;2;44;0;-1;9;-1;-1;687225d9-8424-40aa-9148-93617b152e31;2025-04-25 10:36:27.2393
1;8;-58;2;5;-2;0;3;687225d9-8424-40aa-9148-93617b152e31;2025-04-25 10:36:27.2393
-3;-10;-5;-6;-5;-6;-4;-2;687225d9-8424-40aa-9148-93617b152e31;2025-04-25 10:36:27.2543
7;27;16;8;1;2;-2;3;687225d9-8424-40aa-9148-93617b152e31;2025-04-25 10:36:27.2543
-7;-23;-13;-5;-3;-6;-5;-3;687225d9-8424-40aa-9148-93617b152e31;2025-04-25 10:36:27.2553
0;14;26;-5;-7;-2;-3;-5;687225d9-8424-40aa-9148-93617b152e31;2025-04-25 10:36:27.2553
0;7;0;-2;-2;1;-2;-2;687225d9-8424-40aa-9148-93617b152e31;2025-04-25 10:36:27.2573
-1;-15;-25;0;-3;-1;-1;-2;687225d9-8424-40aa-9148-93617b152e31;2025-04-25 10:36:27.2573
0;23;10;-5;-9;-6;-3;0;687225d9-8424-40aa-9148-93617b152e31;2025-04-25 10:36:27.2991
-2;-10;15;-17;-20;-3;-4;-2;687225d9-8424-40aa-9148-93617b152e31;2025-04-25 10:36:27.2991
0;35;-15;6;18;4;4;-1;687225d9-8424-40aa-9148-93617b152e31;2025-04-25 10:36:27.3011
1;-29;-8;13;12;5;5;2;687225d9-8424-40aa-9148-93617b152e31;2025-04-25 10:36:27.3011
-5;13;-31;-8;-12;-3;1;-2;687225d9-8424-40aa-9148-93617b152e31;2025-04-25 10:36:27.3211
8;-14;27;27;9;7;4;5;687225d9-8424-40aa-9148-93617b152e31;2025-04-25 10:36:27.3211
-20;-42;-16;-71;-18;-4;0;-7;687225d9-8424-40aa-9148-93617b152e31;2025-04-25 10:36:27.3301
2;41;-64;-12;18;3;-6;-6;687225d9-8424-40aa-9148-93617b152e31;2025-04-25 10:36:27.3301
12;21;49;37;5;9;7;18;687225d9-8424-40aa-9148-93617b152e31;2025-04-25 10:36:27.3311
-8;11;-27;-4;-3;-1;-7;-34;687225d9-8424-40aa-9148-93617b152e31;2025-04-25 10:36:27.3311
9;16;-8;21;-6;-3;-3;-2;687225d9-8424-40aa-9148-93617b152e31;2025-04-25 10:36:27.3321
-8;-44;29;-1;-13;-5;1;-2;687225d9-8424-40aa-9148-93617b152e31;2025-04-25 10:36:27.3331
4;19;1;-24;-5;-5;-3;-5;687225d9-8424-40aa-9148-93617b152e31;2025-04-25 10:36:27.3430
-1;-1;1;-3;-12;11;-3;7;687225d9-8424-40aa-9148-93617b152e31;2025-04-25 10:36:27.3430
4;-8;-10;-1;-5;-11;40;5;687225d9-8424-40aa-9148-93617b152e31;2025-04-25 10:36:27.3590
-3;-16;30;45;-1;94;-43;0;687225d9-8424-40aa-9148-93617b152e31;2025-04-25 10:36:27.3600
-19;-16;-46;-31;5;-105;46;-25;687225d9-8424-40aa-9148-93617b152e31;2025-04-25 10:36:27.3610
32;43;19;55;11;57;-5;62;687225d9-8424-40aa-9148-93617b152e31;2025-04-25 10:36:27.3610
31;69;-30;-61;16;12;-41;-14;687225d9-8424-40aa-9148-93617b152e31;2025-04-25 10:36:27.3650
-59;-61;-28;-19;17;37;6;-15;687225d9-8424-40aa-9148-93617b152e31;2025-04-25 10:36:27.3650
49;-19;26;55;-20;-53;12;-10;687225d9-8424-40aa-9148-93617b152e31;2025-04-25 10:36:27.4039
-4;22;88;13;-11;-4;-1;6;687225d9-8424-40aa-9148-93617b152e31;2025-04-25 10:36:27.4039
37;-32;62;15;-9;33;-37;-3;687225d9-8424-40aa-9148-93617b152e31;2025-04-25 10:36:27.4049
-42;59;-46;-55;1;-77;-7;-8;687225d9-8424-40aa-9148-93617b152e31;2025-04-25 10:36:27.4049
-1;17;51;-15;13;37;4;12;687225d9-8424-40aa-9148-93617b152e31;2025-04-25 10:36:27.4099
76;18;98;45;-3;9;101;44;687225d9-8424-40aa-9148-93617b152e31;2025-04-25 10:36:27.4109
-47;58;34;71;-14;101;-89;-33;687225d9-8424-40aa-9148-93617b152e31;2025-04-25 10:36:27.4348
-41;-58;-83;-104;-7;-111;-10;-46;687225d9-8424-40aa-9148-93617b152e31;2025-04-25 10:36:27.4348
-13;5;89;37;0;127;22;9;687225d9-8424-40aa-9148-93617b152e31;2025-04-25 10:36:27.4368
-10;-109;-9;13;-8;-122;13;-41;687225d9-8424-40aa-9148-93617b152e31;2025-04-25 10:36:27.4368
28;92;126;53;21;36;27;60;687225d9-8424-40aa-9148-93617b152e31;2025-04-25 10:36:27.4378
29;-7;57;57;-7;-46;-11;4;687225d9-8424-40aa-9148-93617b152e31;2025-04-25 10:36:27.4378
3;-63;51;-88;-33;95;-8;-8;687225d9-8424-40aa-9148-93617b152e31;2025-04-25 10:36:27.4508
-24;45;43;-35;8;69;-111;0;687225d9-8424-40aa-9148-93617b152e31;2025-04-25 10:36:27.4508
-42;-8;-29;-29;15;-32;35;-10;687225d9-8424-40aa-9148-93617b152e31;2025-04-25 10:36:27.4518
18;60;118;64;6;6;15;10;687225d9-8424-40aa-9148-93617b152e31;2025-04-25 10:36:27.4518
13;-21;-128;-80;3;-38;28;13;687225d9-8424-40aa-9148-93617b152e31;2025-04-25 10:36:27.4628
-55;-97;99;-35;-32;53;-54;-33;687225d9-8424-40aa-9148-93617b152e31;2025-04-25 10:36:27.4628
19;-110;-98;48;9;-76;19;7;687225d9-8424-40aa-9148-93617b152e31;2025-04-25 10:36:27.4717
7;-60;83;5;-16;31;-30;-4;687225d9-8424-40aa-9148-93617b152e31;2025-04-25 10:36:27.4717
-10;67;109;63;28;-11;-18;31;687225d9-8424-40aa-9148-93617b152e31;2025-04-25 10:36:27.4727
-23;-7;-128;-89;6;-62;35;-18;687225d9-8424-40aa-9148-93617b152e31;2025-04-25 10:36:27.4727
-25;-33;16;-66;6;47;15;-14;687225d9-8424-40aa-9148-93617b152e31;2025-04-25 10:36:27.5106
22;10;5;40;-5;-64;91;-3;687225d9-8424-40aa-9148-93617b152e31;2025-04-25 10:36:27.5106
15;-25;17;31;-13;10;-53;0;687225d9-8424-40aa-9148-93617b152e31;2025-04-25 10:36:27.5116
-2;86;-8;35;-3;-77;6;-11;687225d9-8424-40aa-9148-93617b152e31;2025-04-25 10:36:27.5116
-5;-9;-3;-18;-2;-39;-11;5;687225d9-8424-40aa-9148-93617b152e31;2025-04-25 10:36:27.5126
8;-12;54;-30;7;79;54;28;687225d9-8424-40aa-9148-93617b152e31;2025-04-25 10:36:27.5126
-27;-47;-86;-12;-25;-31;-115;-48;687225d9-8424-40aa-9148-93617b152e31;2025-04-25 10:36:27.5166
-6;58;72;-37;-3;-23;9;-32;687225d9-8424-40aa-9148-93617b152e31;2025-04-25 10:36:27.5166
-25;-53;-32;64;-6;24;20;0;687225d9-8424-40aa-9148-93617b152e31;2025-04-25 10:36:27.5386
18;30;-15;-31;3;25;-47;5;687225d9-8424-40aa-9148-93617b152e31;2025-04-25 10:36:27.5386
24;113;27;102;9;-6;31;22;687225d9-8424-40aa-9148-93617b152e31;2025-04-25 10:36:27.5406
14;-111;-128;-72;5;42;43;18;687225d9-8424-40aa-9148-93617b152e31;2025-04-25 10:36:27.5406
26;-80;22;-25;-8;-18;-1;2;687225d9-8424-40aa-9148-93617b152e31;2025-04-25 10:36:27.5445
-1;55;91;22;-7;44;-75;-10;687225d9-8424-40aa-9148-93617b152e31;2025-04-25 10:36:27.5445
-4;5;115;34;-9;-126;55;13;687225d9-8424-40aa-9148-93617b152e31;2025-04-25 10:36:27.5535
13;10;-35;8;-19;73;-43;19;687225d9-8424-40aa-9148-93617b152e31;2025-04-25 10:36:27.5535
22;46;-67;-28;7;-99;-24;8;687225d9-8424-40aa-9148-93617b152e31;2025-04-25 10:36:27.5755
27;-16;-44;3;6;-3;11;1;687225d9-8424-40aa-9148-93617b152e31;2025-04-25 10:36:27.5755
-10;-32;12;-41;25;90;-27;-15;687225d9-8424-40aa-9148-93617b152e31;2025-04-25 10:36:27.5834
2;2;117;127;7;18;51;48;687225d9-8424-40aa-9148-93617b152e31;2025-04-25 10:36:27.5844
-60;-70;-57;-126;-8;-10;-76;-21;687225d9-8424-40aa-9148-93617b152e31;2025-04-25 10:36:27.5924
5;14;66;79;-12;-13;-37;-5;687225d9-8424-40aa-9148-93617b152e31;2025-04-25 10:36:27.5924
0;26;27;-59;3;0;-3;-3;687225d9-8424-40aa-9148-93617b152e31;2025-04-25 10:36:27.5974
-67;13;-3;-22;8;8;-9;-17;687225d9-8424-40aa-9148-93617b152e31;2025-04-25 10:36:27.5974
47;6;63;92;13;11;36;28;687225d9-8424-40aa-9148-93617b152e31;2025-04-25 10:36:27.6054
-26;-26;-43;-21;16;43;9;-25;687225d9-8424-40aa-9148-93617b152e31;2025-04-25 10:36:27.6054
7;34;-30;-18;23;7;-28;1;687225d9-8424-40aa-9148-93617b152e31;2025-04-25 10:36:27.6134
5;18;9;20;-15;62;-5;-9;687225d9-8424-40aa-9148-93617b152e31;2025-04-25 10:36:27.6144
-23;-12;99;-47;-25;-88;-22;-15;687225d9-8424-40aa-9148-93617b152e31;2025-04-25 10:36:27.6283
5;-19;-107;-15;11;-23;52;12;687225d9-8424-40aa-9148-93617b152e31;2025-04-25 10:36:27.6283
14;10;40;35;15;49;-14;1;687225d9-8424-40aa-9148-93617b152e31;2025-04-25 10:36:27.6423
7;-3;-106;-48;-5;-19;-49;-26;687225d9-8424-40aa-9148-93617b152e31;2025-04-25 10:36:27.6423
-6;93;65;55;-11;39;10;4;687225d9-8424-40aa-9148-93617b152e31;2025-04-25 10:36:27.6503
23;80;82;-11;3;1;91;20;687225d9-8424-40aa-9148-93617b152e31;2025-04-25 10:36:27.6503
43;-41;72;-92;-16;-21;-48;22;687225d9-8424-40aa-9148-93617b152e31;2025-04-25 10:36:27.6592
-33;-73;-22;-13;23;-17;-30;-40;687225d9-8424-40aa-9148-93617b152e31;2025-04-25 10:36:27.6592
-4;77;78;21;-14;17;8;11;687225d9-8424-40aa-9148-93617b152e31;2025-04-25 10:36:27.6732
-3;-51;21;81;-42;-47;-51;4;687225d9-8424-40aa-9148-93617b152e31;2025-04-25 10:36:27.6732
-6;23;-104;-51;6;-3;-38;-3;687225d9-8424-40aa-9148-93617b152e31;2025-04-25 10:36:27.6822
39;-11;14;-5;6;10;87;32;687225d9-8424-40aa-9148-93617b152e31;2025-04-25 10:36:27.6822
-1;-25;-62;66;14;7;-14;-7;687225d9-8424-40aa-9148-93617b152e31;2025-04-25 10:36:27.6892
15;16;78;23;7;33;9;-10;687225d9-8424-40aa-9148-93617b152e31;2025-04-25 10:36:27.6892
-44;-96;-99;-49;12;90;-32;16;687225d9-8424-40aa-9148-93617b152e31;2025-04-25 10:36:27.6902
7;27;-24;58;0;-101;31;-12;687225d9-8424-40aa-9148-93617b152e31;2025-04-25 10:36:27.6902
-4;17;89;-9;8;29;34;-4;687225d9-8424-40aa-9148-93617b152e31;2025-04-25 10:36:27.7116
79;-34;70;13;3;-1;-27;5;687225d9-8424-40aa-9148-93617b152e31;2025-04-25 10:36:27.7116
-68;-46;-32;15;-65;-4;57;-15;687225d9-8424-40aa-9148-93617b152e31;2025-04-25 10:36:27.7136
-3;-3;-19;-34;-11;53;-127;20;687225d9-8424-40aa-9148-93617b152e31;2025-04-25 10:36:27.7136
-20;-10;9;-15;-19;-78;-4;-10;687225d9-8424-40aa-9148-93617b152e31;2025-04-25 10:36:27.7246
38;59;-10;25;-14;-16;-110;-38;687225d9-8424-40aa-9148-93617b152e31;2025-04-25 10:36:27.7246
8;25;60;-6;61;28;59;62;687225d9-8424-40aa-9148-93617b152e31;2025-04-25 10:36:27.7335
-3;65;34;-1;5;-74;15;-9;687225d9-8424-40aa-9148-93617b152e31;2025-04-25 10:36:27.7345
-22;-100;-9;-28;-47;-14;44;-24;687225d9-8424-40aa-9148-93617b152e31;2025-04-25 10:36:27.7485
-49;77;48;-46;26;27;-43;20;687225d9-8424-40aa-9148-93617b152e31;2025-04-25 10:36:27.7485
17;-70;-67;8;-36;-44;-31;-25;687225d9-8424-40aa-9148-93617b152e31;2025-04-25 10:36:27.7505
-39;57;92;22;16;17;13;-7;687225d9-8424-40aa-9148-93617b152e31;2025-04-25 10:36:27.7505
15;-37;39;71;8;50;9;-4;687225d9-8424-40aa-9148-93617b152e31;2025-04-25 10:36:27.7714
-60;-81;-128;-128;-16;-29;21;3;687225d9-8424-40aa-9148-93617b152e31;2025-04-25 10:36:27.7714
16;40;27;73;2;-50;-8;-15;687225d9-8424-40aa-9148-93617b152e31;2025-04-25 10:36:27.7724
39;28;91;-5;-19;-10;39;28;687225d9-8424-40aa-9148-93617b152e31;2025-04-25 10:36:27.7724
36;34;-128;-61;62;51;-14;-28;687225d9-8424-40aa-9148-93617b152e31;2025-04-25 10:36:27.7854
-30;-39;-6;-22;-20;-25;15;43;687225d9-8424-40aa-9148-93617b152e31;2025-04-25 10:36:27.7854
-9;44;-55;-4;17;6;-55;-9;687225d9-8424-40aa-9148-93617b152e31;2025-04-25 10:36:27.7934
-12;-74;-60;4;-16;11;-39;-17;687225d9-8424-40aa-9148-93617b152e31;2025-04-25 10:36:27.7944
-46;112;127;9;1;-16;20;-26;687225d9-8424-40aa-9148-93617b152e31;2025-04-25 10:36:27.8153
35;16;-106;6;-4;15;25;30;687225d9-8424-40aa-9148-93617b152e31;2025-04-25 10:36:27.8163
-55;58;39;11;-8;1;19;-8;687225d9-8424-40aa-9148-93617b152e31;2025-04-25 10:36:27.8243
10;-32;-15;-28;4;48;64;-21;687225d9-8424-40aa-9148-93617b152e31;2025-04-25 10:36:27.8243
44;-51;21;16;-10;-74;-41;14;687225d9-8424-40aa-9148-93617b152e31;2025-04-25 10:36:27.8313
-15;1;-51;-1;20;60;-28;7;687225d9-8424-40aa-9148-93617b152e31;2025-04-25 10:36:27.8313
-46;-16;30;-2;-24;-7;98;-64;687225d9-8424-40aa-9148-93617b152e31;2025-04-25 10:36:27.8333
5;-48;68;-26;11;24;-6;2;687225d9-8424-40aa-9148-93617b152e31;2025-04-25 10:36:27.8333
7;58;48;36;4;35;-53;12;687225d9-8424-40aa-9148-93617b152e31;2025-04-25 10:36:27.8542
-3;-55;-19;-10;3;-24;5;14;687225d9-8424-40aa-9148-93617b152e31;2025-04-25 10:36:27.8542
12;30;11;65;-26;-20;31;3;687225d9-8424-40aa-9148-93617b152e31;2025-04-25 10:36:27.8552
50;-4;-59;-40;2;-15;-63;4;687225d9-8424-40aa-9148-93617b152e31;2025-04-25 10:36:27.8552
22;27;-58;18;15;9;12;42;687225d9-8424-40aa-9148-93617b152e31;2025-04-25 10:36:27.8692
-6;23;-31;-30;12;-18;68;0;687225d9-8424-40aa-9148-93617b152e31;2025-04-25 10:36:27.8692
-7;2;101;17;-9;2;-101;-4;687225d9-8424-40aa-9148-93617b152e31;2025-04-25 10:36:27.8707
2;-24;-20;-24;-11;0;48;10;687225d9-8424-40aa-9148-93617b152e31;2025-04-25 10:36:27.8707
-19;-45;35;3;-3;-3;13;1;687225d9-8424-40aa-9148-93617b152e31;2025-04-25 10:36:27.8912
-7;50;-43;-47;-1;11;4;-11;687225d9-8424-40aa-9148-93617b152e31;2025-04-25 10:36:27.8912
47;-24;21;7;26;60;3;12;687225d9-8424-40aa-9148-93617b152e31;2025-04-25 10:36:27.8932
4;-38;-12;43;-1;-85;58;0;687225d9-8424-40aa-9148-93617b152e31;2025-04-25 10:36:27.8932
19;-12;-85;-20;-5;17;-15;0;687225d9-8424-40aa-9148-93617b152e31;2025-04-25 10:36:27.9132
-10;62;29;18;-8;3;5;5;687225d9-8424-40aa-9148-93617b152e31;2025-04-25 10:36:27.9132
18;86;103;6;-10;-19;18;-52;687225d9-8424-40aa-9148-93617b152e31;2025-04-25 10:36:27.9211
-31;-35;4;16;-6;8;-75;4;687225d9-8424-40aa-9148-93617b152e31;2025-04-25 10:36:27.9211
13;-17;-128;-86;-9;62;11;13;687225d9-8424-40aa-9148-93617b152e31;2025-04-25 10:36:27.9291
41;23;127;27;32;-57;-10;-2;687225d9-8424-40aa-9148-93617b152e31;2025-04-25 10:36:27.9291
19;75;-4;48;-7;-15;76;25;687225d9-8424-40aa-9148-93617b152e31;2025-04-25 10:36:27.9301
-3;18;98;-46;5;-18;-71;-5;687225d9-8424-40aa-9148-93617b152e31;2025-04-25 10:36:27.9301
-48;-18;-84;-3;21;45;-1;-16;687225d9-8424-40aa-9148-93617b152e31;2025-04-25 10:36:27.9585
-47;28;81;27;-19;-40;-28;18;687225d9-8424-40aa-9148-93617b152e31;2025-04-25 10:36:27.9585
4;6;28;-22;5;-55;-2;-29;687225d9-8424-40aa-9148-93617b152e31;2025-04-25 10:36:27.9605
7;-41;-7;33;-11;40;-24;23;687225d9-8424-40aa-9148-93617b152e31;2025-04-25 10:36:27.9605
-13;-19;-42;-30;2;-50;16;-21;687225d9-8424-40aa-9148-93617b152e31;2025-04-25 10:36:27.9735
24;-26;31;-1;2;13;6;1;687225d9-8424-40aa-9148-93617b152e31;2025-04-25 10:36:27.9735
2;-89;-73;-3;-12;23;-38;8;687225d9-8424-40aa-9148-93617b152e31;2025-04-25 10:36:27.9755
-25;127;114;25;8;-1;-31;-9;687225d9-8424-40aa-9148-93617b152e31;2025-04-25 10:36:27.9755
-24;-112;37;-26;-13;-3;72;-7;687225d9-8424-40aa-9148-93617b152e31;2025-04-25 10:36:27.9905
7;11;-1;17;-13;26;-17;-15;687225d9-8424-40aa-9148-93617b152e31;2025-04-25 10:36:27.9905
11;-3;98;-22;0;-18;13;8;687225d9-8424-40aa-9148-93617b152e31;2025-04-25 10:36:27.9955
-41;42;-85;-50;20;26;35;-5;687225d9-8424-40aa-9148-93617b152e31;2025-04-25 10:36:27.9955
32;40;18;11;9;23;4;-31;687225d9-8424-40aa-9148-93617b152e31;2025-04-25 10:36:28.0104
-48;-27;-43;-11;-11;6;-66;-19;687225d9-8424-40aa-9148-93617b152e31;2025-04-25 10:36:28.0104
-9;-1;5;28;2;-16;-47;20;687225d9-8424-40aa-9148-93617b152e31;2025-04-25 10:36:28.0264
13;62;91;55;-18;-19;16;-2;687225d9-8424-40aa-9148-93617b152e31;2025-04-25 10:36:28.0264
-31;-29;38;-77;11;-14;-97;5;687225d9-8424-40aa-9148-93617b152e31;2025-04-25 10:36:28.0334
31;8;73;30;-12;11;-36;24;687225d9-8424-40aa-9148-93617b152e31;2025-04-25 10:36:28.0344
21;-24;-7;27;8;13;73;0;687225d9-8424-40aa-9148-93617b152e31;2025-04-25 10:36:28.0354
-35;96;2;10;15;16;-80;-5;687225d9-8424-40aa-9148-93617b152e31;2025-04-25 10:36:28.0354
2;-49;67;-25;-24;-51;-39;-48;687225d9-8424-40aa-9148-93617b152e31;2025-04-25 10:36:28.0488
3;-24;106;-11;-4;1;24;-13;687225d9-8424-40aa-9148-93617b152e31;2025-04-25 10:36:28.0488
5;-5;-40;17;12;-2;30;12;687225d9-8424-40aa-9148-93617b152e31;2025-04-25 10:36:28.0498
17;-17;-57;-9;-12;-9;57;-7;687225d9-8424-40aa-9148-93617b152e31;2025-04-25 10:36:28.0508
-1;22;60;20;-4;-1;1;29;687225d9-8424-40aa-9148-93617b152e31;2025-04-25 10:36:28.0718
-5;-68;75;-8;7;21;-35;-20;687225d9-8424-40aa-9148-93617b152e31;2025-04-25 10:36:28.0718
-6;7;-30;-36;-6;-19;66;-3;687225d9-8424-40aa-9148-93617b152e31;2025-04-25 10:36:28.0728
17;-1;87;9;-29;-6;-41;6;687225d9-8424-40aa-9148-93617b152e31;2025-04-25 10:36:28.0728
-14;63;65;-8;46;12;-13;1;687225d9-8424-40aa-9148-93617b152e31;2025-04-25 10:36:28.0942
-21;39;-35;48;21;-5;29;16;687225d9-8424-40aa-9148-93617b152e31;2025-04-25 10:36:28.0942
-14;-54;-74;-57;-13;20;-56;-5;687225d9-8424-40aa-9148-93617b152e31;2025-04-25 10:36:28.0952
27;-15;-54;6;20;27;5;3;687225d9-8424-40aa-9148-93617b152e31;2025-04-25 10:36:28.0952
2;-39;20;23;-27;-76;59;-3;687225d9-8424-40aa-9148-93617b152e31;2025-04-25 10:36:28.1082
-8;85;42;18;1;90;33;9;687225d9-8424-40aa-9148-93617b152e31;2025-04-25 10:36:28.1082
-57;-63;-64;-47;3;-51;3;-12;687225d9-8424-40aa-9148-93617b152e31;2025-04-25 10:36:28.1321
-14;-13;69;-11;-25;-9;17;-6;687225d9-8424-40aa-9148-93617b152e31;2025-04-25 10:36:28.1321
41;92;65;73;-8;14;16;12;687225d9-8424-40aa-9148-93617b152e31;2025-04-25 10:36:28.1331
-3;-21;-40;-10;16;-4;12;-5;687225d9-8424-40aa-9148-93617b152e31;2025-04-25 10:36:28.1331
49;-6;3;-15;-3;5;35;41;687225d9-8424-40aa-9148-93617b152e31;2025-04-25 10:36:28.1391
-32;-84;37;-12;7;-34;-70;-22;687225d9-8424-40aa-9148-93617b152e31;2025-04-25 10:36:28.1391
9;0;-128;14;6;79;-2;-1;687225d9-8424-40aa-9148-93617b152e31;2025-04-25 10:36:28.1610
13;4;82;-30;-40;-48;15;-13;687225d9-8424-40aa-9148-93617b152e31;2025-04-25 10:36:28.1610
51;73;64;30;28;14;-69;21;687225d9-8424-40aa-9148-93617b152e31;2025-04-25 10:36:28.1630
1;-16;-35;-8;-20;-17;38;7;687225d9-8424-40aa-9148-93617b152e31;2025-04-25 10:36:28.1630
4;-25;-42;-8;20;6;15;15;687225d9-8424-40aa-9148-93617b152e31;2025-04-25 10:36:28.1680
13;-22;-5;-18;-23;-62;53;-28;687225d9-8424-40aa-9148-93617b152e31;2025-04-25 10:36:28.1680
-33;100;99;60;14;68;-16;-6;687225d9-8424-40aa-9148-93617b152e31;2025-04-25 10:36:28.1750
-9;-47;-17;-40;10;11;1;28;687225d9-8424-40aa-9148-93617b152e31;2025-04-25 10:36:28.1750
-54;7;51;17;-39;4;-50;-25;687225d9-8424-40aa-9148-93617b152e31;2025-04-25 10:36:28.1989
-3;18;-55;-4;15;44;71;-2;687225d9-8424-40aa-9148-93617b152e31;2025-04-25 10:36:28.1989
-10;-17;-93;-7;8;-25;-40;-6;687225d9-8424-40aa-9148-93617b152e31;2025-04-25 10:36:28.1999
11;13;36;50;-14;53;21;-20;687225d9-8424-40aa-9148-93617b152e31;2025-04-25 10:36:28.1999
-7;46;33;-54;13;-31;-48;29;687225d9-8424-40aa-9148-93617b152e31;2025-04-25 10:36:28.2139
-31;-89;-36;-10;6;2;-24;-13;687225d9-8424-40aa-9148-93617b152e31;2025-04-25 10:36:28.2139
16;60;48;20;-13;5;76;9;687225d9-8424-40aa-9148-93617b152e31;2025-04-25 10:36:28.2149
-60;-65;-72;-54;-13;-9;-11;-10;687225d9-8424-40aa-9148-93617b152e31;2025-04-25 10:36:28.2159
-5;-102;-63;-36;-6;-7;-12;-10;687225d9-8424-40aa-9148-93617b152e31;2025-04-25 10:36:28.2358
19;72;101;39;9;9;-3;-2;687225d9-8424-40aa-9148-93617b152e31;2025-04-25 10:36:28.2368
-4;-60;-127;-2;-2;-38;-30;-13;687225d9-8424-40aa-9148-93617b152e31;2025-04-25 10:36:28.2378
-16;-22;24;-10;-21;-11;-6;-18;687225d9-8424-40aa-9148-93617b152e31;2025-04-25 10:36:28.2378
23;61;67;5;43;5;6;24;687225d9-8424-40aa-9148-93617b152e31;2025-04-25 10:36:28.2508
42;-30;26;16;-13;38;9;23;687225d9-8424-40aa-9148-93617b152e31;2025-04-25 10:36:28.2518
0;-21;65;71;0;-20;-40;-2;687225d9-8424-40aa-9148-93617b152e31;2025-04-25 10:36:28.2528
2;-35;-92;-89;11;0;43;9;687225d9-8424-40aa-9148-93617b152e31;2025-04-25 10:36:28.2528
0;28;127;52;-6;39;63;-15;687225d9-8424-40aa-9148-93617b152e31;2025-04-25 10:36:28.2737
-41;-63;-48;-22;-3;-67;-96;-26;687225d9-8424-40aa-9148-93617b152e31;2025-04-25 10:36:28.2737
19;30;94;4;-4;9;50;21;687225d9-8424-40aa-9148-93617b152e31;2025-04-25 10:36:28.2757
-20;61;48;56;3;-66;-35;-37;687225d9-8424-40aa-9148-93617b152e31;2025-04-25 10:36:28.2757
-15;-79;-128;-38;-28;17;23;-7;687225d9-8424-40aa-9148-93617b152e31;2025-04-25 10:36:28.2877
-5;-25;-45;-23;16;8;-36;-11;687225d9-8424-40aa-9148-93617b152e31;2025-04-25 10:36:28.2877
-16;10;96;-9;-6;-7;-33;-21;687225d9-8424-40aa-9148-93617b152e31;2025-04-25 10:36:28.3027
23;4;-38;14;-6;5;25;16;687225d9-8424-40aa-9148-93617b152e31;2025-04-25 10:36:28.3027
30;98;80;10;40;14;25;21;687225d9-8424-40aa-9148-93617b152e31;2025-04-25 10:36:28.3116
-16;-14;-57;-3;20;2;7;18;687225d9-8424-40aa-9148-93617b152e31;2025-04-25 10:36:28.3116
-31;-89;-28;-29;-15;-12;-29;-8;687225d9-8424-40aa-9148-93617b152e31;2025-04-25 10:36:28.3126
38;46;-3;27;13;20;-24;6;687225d9-8424-40aa-9148-93617b152e31;2025-04-25 10:36:28.3126
19;13;118;36;-14;-49;10;-2;687225d9-8424-40aa-9148-93617b152e31;2025-04-25 10:36:28.3341
9;8;45;-29;-21;10;-34;-5;687225d9-8424-40aa-9148-93617b152e31;2025-04-25 10:36:28.3341
-8;4;-1;-7;-7;-12;-35;12;687225d9-8424-40aa-9148-93617b152e31;2025-04-25 10:36:28.3351
10;18;75;-5;-2;-2;-1;14;687225d9-8424-40aa-9148-93617b152e31;2025-04-25 10:36:28.3361
-1;-10;-4;16;-8;10;-5;-28;687225d9-8424-40aa-9148-93617b152e31;2025-04-25 10:36:28.3480
2;33;7;12;13;-3;27;77;687225d9-8424-40aa-9148-93617b152e31;2025-04-25 10:36:28.3480
-22;-36;-128;-37;-4;13;21;-84;687225d9-8424-40aa-9148-93617b152e31;2025-04-25 10:36:28.3550
22;62;42;24;9;8;12;-3;687225d9-8424-40aa-9148-93617b152e31;2025-04-25 10:36:28.3550
-16;-61;-32;-19;-17;-7;-28;-17;687225d9-8424-40aa-9148-93617b152e31;2025-04-25 10:36:28.3710
24;25;42;17;6;7;13;16;687225d9-8424-40aa-9148-93617b152e31;2025-04-25 10:36:28.3710
-7;11;9;-7;-1;2;-17;16;687225d9-8424-40aa-9148-93617b152e31;2025-04-25 10:36:28.3730
24;13;-7;5;9;5;-5;10;687225d9-8424-40aa-9148-93617b152e31;2025-04-25 10:36:28.3730
2;25;-18;3;-9;-6;-11;-4;687225d9-8424-40aa-9148-93617b152e31;2025-04-25 10:36:28.3939
2;22;49;12;-4;-16;-7;-33;687225d9-8424-40aa-9148-93617b152e31;2025-04-25 10:36:28.3939
-21;-95;-3;-38;-9;0;3;4;687225d9-8424-40aa-9148-93617b152e31;2025-04-25 10:36:28.3949
-4;-4;11;9;8;5;16;-14;687225d9-8424-40aa-9148-93617b152e31;2025-04-25 10:36:28.3949
6;31;9;1;-8;-9;19;24;687225d9-8424-40aa-9148-93617b152e31;2025-04-25 10:36:28.4079
-4;-10;20;0;-1;-8;-77;-12;687225d9-8424-40aa-9148-93617b152e31;2025-04-25 10:36:28.4079
15;49;10;-6;8;12;-4;55;687225d9-8424-40aa-9148-93617b152e31;2025-04-25 10:36:28.4169
6;-1;-4;8;6;3;15;-28;687225d9-8424-40aa-9148-93617b152e31;2025-04-25 10:36:28.4169
-8;-30;-24;0;-11;-1;-24;2;687225d9-8424-40aa-9148-93617b152e31;2025-04-25 10:36:28.4313
-1;4;-48;-9;-2;-7;28;-20;687225d9-8424-40aa-9148-93617b152e31;2025-04-25 10:36:28.4313
1;10;28;5;2;1;1;-2;687225d9-8424-40aa-9148-93617b152e31;2025-04-25 10:36:28.4543
3;-14;-19;-2;0;-1;-8;16;687225d9-8424-40aa-9148-93617b152e31;2025-04-25 10:36:28.4543
-2;15;12;2;-4;-1;-4;-17;687225d9-8424-40aa-9148-93617b152e31;2025-04-25 10:36:28.4553
-5;-14;-13;-4;-2;-4;14;-5;687225d9-8424-40aa-9148-93617b152e31;2025-04-25 10:36:28.4553
5;13;-17;-4;2;4;-8;-6;687225d9-8424-40aa-9148-93617b152e31;2025-04-25 10:36:28.4573
1;-10;47;6;1;4;5;11;687225d9-8424-40aa-9148-93617b152e31;2025-04-25 10:36:28.4573
1;5;4;-12;-5;3;-18;3;687225d9-8424-40aa-9148-93617b152e31;2025-04-25 10:36:28.4672
-5;-16;-69;-2;-3;-5;7;-4;687225d9-8424-40aa-9148-93617b152e31;2025-04-25 10:36:28.4672
4;13;61;3;-2;0;-7;-4;687225d9-8424-40aa-9148-93617b152e31;2025-04-25 10:36:28.4762
3;-10;-7;5;7;2;10;5;687225d9-8424-40aa-9148-93617b152e31;2025-04-25 10:36:28.4762
-1;-5;-43;6;0;0;-4;7;687225d9-8424-40aa-9148-93617b152e31;2025-04-25 10:36:28.4912
-1;-8;54;-10;-4;-1;2;-9;687225d9-8424-40aa-9148-93617b152e31;2025-04-25 10:36:28.4912
4;32;-40;-3;-3;2;2;0;687225d9-8424-40aa-9148-93617b152e31;2025-04-25 10:36:28.4932
-4;-18;56;1;1;-3;-2;-6;687225d9-8424-40aa-9148-93617b152e31;2025-04-25 10:36:28.4932
6;18;-1;16;5;4;-5;9;687225d9-8424-40aa-9148-93617b152e31;2025-04-25 10:36:28.5141
-1;-19;1;-5;-3;-3;5;0;687225d9-8424-40aa-9148-93617b152e31;2025-04-25 10:36:28.5141
-5;-24;33;-6;-1;3;-4;-10;687225d9-8424-40aa-9148-93617b152e31;2025-04-25 10:36:28.5151
-1;2;-5;-1;-2;0;-2;1;687225d9-8424-40aa-9148-93617b152e31;2025-04-25 10:36:28.5151
-1;-14;2;-7;-6;-3;-8;3;687225d9-8424-40aa-9148-93617b152e31;2025-04-25 10:36:28.5276
1;19;-1;-2;-2;0;11;-1;687225d9-8424-40aa-9148-93617b152e31;2025-04-25 10:36:28.5276
5;17;19;8;-1;0;0;1;687225d9-8424-40aa-9148-93617b152e31;2025-04-25 10:36:28.5366
-4;-9;-55;1;5;9;1;-1;687225d9-8424-40aa-9148-93617b152e31;2025-04-25 10:36:28.5366
2;-2;2;4;-1;-4;1;6;687225d9-8424-40aa-9148-93617b152e31;2025-04-25 10:36:28.5505
-1;6;1;0;2;1;-1;-6;687225d9-8424-40aa-9148-93617b152e31;2025-04-25 10:36:28.5505
4;34;17;3;0;-6;-2;0;687225d9-8424-40aa-9148-93617b152e31;2025-04-25 10:36:28.5585
-11;-68;-87;-27;-11;-5;-3;-2;687225d9-8424-40aa-9148-93617b152e31;2025-04-25 10:36:28.5595
-1;17;18;5;1;2;-5;0;687225d9-8424-40aa-9148-93617b152e31;2025-04-25 10:36:28.5735
-1;-3;5;-5;-9;-6;0;-1;687225d9-8424-40aa-9148-93617b152e31;2025-04-25 10:36:28.5735
2;5;-17;4;0;-3;-2;-1;687225d9-8424-40aa-9148-93617b152e31;2025-04-25 10:36:28.5755
1;12;50;6;7;6;2;1;687225d9-8424-40aa-9148-93617b152e31;2025-04-25 10:36:28.5755
2;14;-18;-1;5;6;3;4;687225d9-8424-40aa-9148-93617b152e31;2025-04-25 10:36:28.6124
-5;-32;-2;1;4;-9;1;-4;687225d9-8424-40aa-9148-93617b152e31;2025-04-25 10:36:28.6124
3;14;36;11;-3;-4;-1;0;687225d9-8424-40aa-9148-93617b152e31;2025-04-25 10:36:28.6144
-2;4;-18;-18;-18;-7;-5;-3;687225d9-8424-40aa-9148-93617b152e31;2025-04-25 10:36:28.6144
-5;6;113;-5;-7;7;-2;-2;687225d9-8424-40aa-9148-93617b152e31;2025-04-25 10:36:28.6153
-2;-19;-35;7;24;-10;0;0;687225d9-8424-40aa-9148-93617b152e31;2025-04-25 10:36:28.6153
1;15;23;13;-14;9;-1;0;687225d9-8424-40aa-9148-93617b152e31;2025-04-25 10:36:28.6189
3;10;-6;-11;22;-4;3;3;687225d9-8424-40aa-9148-93617b152e31;2025-04-25 10:36:28.6189
3;-1;-14;10;-11;1;-3;2;687225d9-8424-40aa-9148-93617b152e31;2025-04-25 10:36:28.6408
0;10;-90;-7;0;3;0;0;687225d9-8424-40aa-9148-93617b152e31;2025-04-25 10:36:28.6408
-9;-22;55;-8;-1;-5;-4;-5;687225d9-8424-40aa-9148-93617b152e31;2025-04-25 10:36:28.6498
3;11;-1;8;-5;-4;-1;1;687225d9-8424-40aa-9148-93617b152e31;2025-04-25 10:36:28.6498
-2;-13;-23;-14;-1;-6;-3;-1;687225d9-8424-40aa-9148-93617b152e31;2025-04-25 10:36:28.6797
2;16;11;6;-2;4;0;-2;687225d9-8424-40aa-9148-93617b152e31;2025-04-25 10:36:28.6807
-2;-18;-46;-7;6;1;-1;-2;687225d9-8424-40aa-9148-93617b152e31;2025-04-25 10:36:28.6807
-1;8;8;1;-9;0;1;1;687225d9-8424-40aa-9148-93617b152e31;2025-04-25 10:36:28.6807
0;0;-17;-4;4;-4;-4;-3;687225d9-8424-40aa-9148-93617b152e31;2025-04-25 10:36:28.6827
-2;-2;12;1;-10;2;-1;1;687225d9-8424-40aa-9148-93617b152e31;2025-04-25 10:36:28.6827
-4;-10;4;-7;3;2;0;-2;687225d9-8424-40aa-9148-93617b152e31;2025-04-25 10:36:28.6857
3;7;8;1;1;-1;-2;-1;687225d9-8424-40aa-9148-93617b152e31;2025-04-25 10:36:28.6857
1;-5;-15;5;1;-3;0;2;687225d9-8424-40aa-9148-93617b152e31;2025-04-25 10:36:28.7186
1;-2;15;-1;-4;2;9;19;687225d9-8424-40aa-9148-93617b152e31;2025-04-25 10:36:28.7191
-8;0;13;-10;0;1;1;-34;687225d9-8424-40aa-9148-93617b152e31;2025-04-25 10:36:28.7191
9;12;3;7;0;-3;-9;-4;687225d9-8424-40aa-9148-93617b152e31;2025-04-25 10:36:28.7191
-6;-9;-19;-6;-1;-2;-3;-12;687225d9-8424-40aa-9148-93617b152e31;2025-04-25 10:36:28.7231
1;6;9;-2;-7;1;-1;-2;687225d9-8424-40aa-9148-93617b152e31;2025-04-25 10:36:28.7231
0;0;-19;0;5;2;4;6;687225d9-8424-40aa-9148-93617b152e31;2025-04-25 10:36:28.7321
-4;2;2;4;-2;1;1;4;687225d9-8424-40aa-9148-93617b152e31;2025-04-25 10:36:28.7321
1;-6;-13;-4;-3;-1;-2;-3;687225d9-8424-40aa-9148-93617b152e31;2025-04-25 10:36:28.7330
-10;-2;10;0;-3;0;0;-6;687225d9-8424-40aa-9148-93617b152e31;2025-04-25 10:36:28.7330
-2;-4;-14;0;1;-2;-3;6;687225d9-8424-40aa-9148-93617b152e31;2025-04-25 10:36:28.7340
2;2;-1;3;1;0;1;-2;687225d9-8424-40aa-9148-93617b152e31;2025-04-25 10:36:28.7340
-1;-4;1;-1;-2;-2;-1;6;687225d9-8424-40aa-9148-93617b152e31;2025-04-25 10:36:28.7530
0;0;9;0;-1;0;-3;-3;687225d9-8424-40aa-9148-93617b152e31;2025-04-25 10:36:28.7530
2;-3;-16;-3;0;-2;-4;3;687225d9-8424-40aa-9148-93617b152e31;2025-04-25 10:36:28.7849
0;3;6;3;-1;-2;0;2;687225d9-8424-40aa-9148-93617b152e31;2025-04-25 10:36:28.7849
-1;-1;-4;-1;0;-1;3;3;687225d9-8424-40aa-9148-93617b152e31;2025-04-25 10:36:28.7869
1;-2;1;-2;-4;-2;-2;-3;687225d9-8424-40aa-9148-93617b152e31;2025-04-25 10:36:28.7869
1;0;-4;-1;-1;0;-1;0;687225d9-8424-40aa-9148-93617b152e31;2025-04-25 10:36:28.7869
-1;-1;-17;-3;-1;-2;0;-1;687225d9-8424-40aa-9148-93617b152e31;2025-04-25 10:36:28.7869
-2;-1;10;-2;-1;-3;0;1;687225d9-8424-40aa-9148-93617b152e31;2025-04-25 10:36:28.8148
-1;-4;-27;-4;2;-1;-4;-4;687225d9-8424-40aa-9148-93617b152e31;2025-04-25 10:36:28.8148
1;-4;-2;-1;0;-2;0;6;687225d9-8424-40aa-9148-93617b152e31;2025-04-25 10:36:28.8158
1;3;3;2;-1;0;1;3;687225d9-8424-40aa-9148-93617b152e31;2025-04-25 10:36:28.8158
0;-1;11;-2;-1;-1;-2;-2;687225d9-8424-40aa-9148-93617b152e31;2025-04-25 10:36:28.8213
1;8;12;-2;-3;0;-2;0;687225d9-8424-40aa-9148-93617b152e31;2025-04-25 10:36:28.8213
-5;-16;-24;-6;-2;-1;-1;-5;687225d9-8424-40aa-9148-93617b152e31;2025-04-25 10:36:28.8223
-1;0;-6;4;-2;0;-1;-2;687225d9-8424-40aa-9148-93617b152e31;2025-04-25 10:36:28.8223
-1;-1;-4;-3;-1;-1;-1;-1;687225d9-8424-40aa-9148-93617b152e31;2025-04-25 10:36:28.8502
1;6;25;2;-1;0;-1;-4;687225d9-8424-40aa-9148-93617b152e31;2025-04-25 10:36:28.8502
2;2;-8;-2;2;0;1;3;687225d9-8424-40aa-9148-93617b152e31;2025-04-25 10:36:28.8602
0;0;5;-2;-2;1;0;-1;687225d9-8424-40aa-9148-93617b152e31;2025-04-25 10:36:28.8602
1;-2;-1;0;0;-1;-1;3;687225d9-8424-40aa-9148-93617b152e31;2025-04-25 10:36:28.8622
0;-3;-13;-3;-1;-3;-2;-2;687225d9-8424-40aa-9148-93617b152e31;2025-04-25 10:36:28.8622
0;0;-2;0;0;0;-1;-1;687225d9-8424-40aa-9148-93617b152e31;2025-04-25 10:36:28.8622
-3;1;4;1;-2;-1;4;1;687225d9-8424-40aa-9148-93617b152e31;2025-04-25 10:36:28.8622
2;1;-6;0;0;0;-6;35;687225d9-8424-40aa-9148-93617b152e31;2025-04-25 10:36:28.8901
2;-4;0;-2;-2;-2;4;-25;687225d9-8424-40aa-9148-93617b152e31;2025-04-25 10:36:28.8901
-1;-3;-2;-3;-1;-1;0;0;687225d9-8424-40aa-9148-93617b152e31;2025-04-25 10:36:28.8911
3;1;10;-1;-1;-3;-5;-7;687225d9-8424-40aa-9148-93617b152e31;2025-04-25 10:36:28.8911
-3;-4;-10;-2;0;-1;1;3;687225d9-8424-40aa-9148-93617b152e31;2025-04-25 10:36:28.8961
5;-6;-1;0;-2;-3;0;8;687225d9-8424-40aa-9148-93617b152e31;2025-04-25 10:36:28.8961
-6;3;2;0;-1;-2;-7;-3;687225d9-8424-40aa-9148-93617b152e31;2025-04-25 10:36:28.8961
-2;-1;-2;0;0;-2;2;5;687225d9-8424-40aa-9148-93617b152e31;2025-04-25 10:36:28.8961
-2;-4;-3;-1;-1;0;2;-11;687225d9-8424-40aa-9148-93617b152e31;2025-04-25 10:36:28.9191
-6;1;0;1;-1;0;-5;0;687225d9-8424-40aa-9148-93617b152e31;2025-04-25 10:36:28.9191
-9;10;0;1;0;-2;3;-1;687225d9-8424-40aa-9148-93617b152e31;2025-04-25 10:36:28.9196
4;3;2;0;-1;0;-2;3;687225d9-8424-40aa-9148-93617b152e31;2025-04-25 10:36:28.9196
-3;-2;-3;-1;0;-3;-2;-9;687225d9-8424-40aa-9148-93617b152e31;2025-04-25 10:36:28.9565
-1;-1;2;-2;-1;0;-1;-2;687225d9-8424-40aa-9148-93617b152e31;2025-04-25 10:36:28.9565
3;-3;-3;-1;-2;-1;-1;6;687225d9-8424-40aa-9148-93617b152e31;2025-04-25 10:36:28.9565
-4;-1;0;0;0;-1;-1;-2;687225d9-8424-40aa-9148-93617b152e31;2025-04-25 10:36:28.9565
-2;1;-2;-2;0;1;1;-8;687225d9-8424-40aa-9148-93617b152e31;2025-04-25 10:36:28.9654
-2;1;-3;0;0;1;-2;5;687225d9-8424-40aa-9148-93617b152e31;2025-04-25 10:36:28.9654
6;-5;2;2;1;2;2;1;687225d9-8424-40aa-9148-93617b152e31;2025-04-25 10:36:28.9664
-7;1;0;-2;0;0;-2;0;687225d9-8424-40aa-9148-93617b152e31;2025-04-25 10:36:28.9664
8;-2;-2;1;-2;-2;1;-3;687225d9-8424-40aa-9148-93617b152e31;2025-04-25 10:36:28.9774
-33;21;1;-1;1;-1;-2;-7;687225d9-8424-40aa-9148-93617b152e31;2025-04-25 10:36:28.9784
9;-8;-3;0;0;0;-1;6;687225d9-8424-40aa-9148-93617b152e31;2025-04-25 10:36:28.9944
-12;7;4;0;1;1;4;-4;687225d9-8424-40aa-9148-93617b152e31;2025-04-25 10:36:28.9944
